0.0025,0.0935
0.005,0.0329
0.0075,0.103
0.01,0.13
0.0125,0.0516
0.015,0.0473
0.0175,0.0418
0.02,0.0425
0.0225,0.0712
0.025,0.0543
0.0275,0.108
0.03,0.037
0.0325,0.0684
0.035,0.132
0.0375,0.0839
0.04,0.121
0.0425,0.0846
0.045,0.0778
0.0475,0.109
0.05,0.0612
0.0525,0.084
0.055,0.0592
0.0575,0.103
0.06,0.0531
0.0625,0.0479
0.065,0.0759
0.0675,0.0653
0.07,0.0782
0.0725,0.146
0.075,0.0769
0.0775,0.114
0.08,0.0368
0.0825,0.121
0.085,0.0555
0.0875,0.0224
0.09,0.109
0.0925,0.0714
0.095,0.0481
0.0975,0.122
0.1,0.0276
0.1025,0.118
0.105,0.039
0.1075,0.0472
0.11,0.0396
0.1125,0.0451
0.115,0.0989
0.1175,0.0962
0.12,0.0753
0.1225,0.054
0.125,0.102
0.1275,0.0239
0.13,0.0457
0.1325,0.084
0.135,0.0591
0.1375,0.0383
0.14,0.104
0.1425,0.0475
0.145,0.0413
0.1475,0.079
0.15,0.104
0.1525,0.0823
0.155,0.122
0.1575,0.0949
0.16,0.053
0.1625,0.0714
0.165,0.0677
0.1675,0.107
0.17,0.0478
0.1725,0.125
0.175,0.0568
0.1775,0.083
0.18,0.098
0.1825,0.0906
0.185,0.0758
0.1875,0.0809
0.19,0.0617
0.1925,0.0429
0.195,0.0782
0.1975,0.0689
0.2,0.122
0.2025,0.0717
0.205,0.11
0.2075,0.0936
0.21,0.0412
0.2125,0.0622
0.215,0.0946
0.2175,0.0484
0.22,0.0584
0.2225,0.0566
0.225,0.101
0.2275,0.0602
0.23,0.11
0.2325,0.0945
0.235,0.0687
0.2375,0.0548
0.24,0.0579
0.2425,0.0273
0.245,0.13
0.2475,0.0374
0.25,0.0976
0.2525,0.0505
0.255,0.106
0.2575,0.0839
0.26,0.0899
0.2625,0.0617
0.265,0.0082
0.2675,0.0515
0.27,0.109
0.2725,0.051
0.275,0.114
0.2775,0.103
0.28,0.0957
0.2825,0.0311
0.285,0.0715
0.2875,0.101
0.29,0.0897
0.2925,0.0733
0.295,0.0672
0.2975,0.0907
0.3,0.0388
0.3025,0.118
0.305,0.112
0.3075,0.0427
0.31,0.0947
0.3125,0.0415
0.315,0.074
0.3175,0.0785
0.32,0.0944
0.3225,0.0363
0.325,0.041
0.3275,0.112
0.33,0.12
0.3325,0.0979
0.335,0.0453
0.3375,0.0183
0.34,0.103
0.3425,0.136
0.345,0.0756
0.3475,0.0798
0.35,0.0569
0.3525,0.0806
0.355,0.0833
0.3575,0.111
0.36,0.123
0.3625,0.0535
0.365,0.0937
0.3675,-0.0782
0.37,0.0927
0.3725,0.845
0.375,1.07
0.3775,-0.555
0.38,-0.387
0.3825,-0.184
0.385,-0.24
0.3875,0.0029
0.39,0.88
0.3925,0.498
0.395,-0.442
0.3975,-0.325
0.4,1.07
0.4025,0.256
0.405,-0.826
0.4075,0.619
0.41,-0.593
0.4125,1.08
0.415,0.746
0.4175,-0.6
0.42,0.0879
0.4225,-0.0908
0.425,-0.154
0.4275,0.207
0.43,-0.0381
0.4325,0.259
0.435,-0.145
0.4375,-0.83
0.44,0.985
0.4425,-0.105
0.445,0.94
0.4475,-0.367
0.45,-0.881
0.4525,-0.683
0.455,0.124
0.4575,1.07
0.46,-0.289
0.4625,-0.646
0.465,-0.717
0.4675,-0.168
0.47,0.291
0.4725,-0.306
0.475,-0.666
0.4775,-0.815
0.48,-0.55
0.4825,-0.643
0.485,0.964
0.4875,0.286
0.49,0.448
0.4925,-0.345
0.495,0.742
0.4975,0.0907
0.5,-0.218
0.5025,0.274
0.505,0.505
0.5075,0.385
0.51,-0.713
0.5125,0.978
0.515,0.627
0.5175,-0.499
0.52,-0.002
0.5225,0.985
0.525,0.672
0.5275,0.481
0.53,-0.495
0.5325,0.448
0.535,1.04
0.5375,0.583
0.54,-0.442
0.5425,0.963
0.545,0.516
0.5475,0.233
0.55,-0.214
0.5525,-0.103
0.555,0.679
0.5575,0.448
0.56,-0.76
0.5625,0.524
0.565,0.667
0.5675,-1.05
0.57,0.107
0.5725,-0.0465
0.575,0.317
0.5775,0.192
0.58,0.202
0.5825,-0.475
0.585,-0.695
0.5875,-0.0352
0.59,-0.789
0.5925,0.74
0.595,0.295
0.5975,0.513
0.6,-0.07
0.6025,1.22
0.605,-0.759
0.6075,-0.899
0.61,0.753
0.6125,0.358
0.615,-0.385
0.6175,1.08
0.62,-0.171
0.6225,0.339
0.625,0.383
0.6275,0.565
0.63,-0.864
0.6325,0.221
0.635,-0.0936
0.6375,0.42
0.64,0.208
0.6425,-0.672
0.645,-0.63
0.6475,0.421
0.65,0.727
0.6525,0.919
0.655,-0.712
0.6575,0.493
0.66,-0.693
0.6625,-0.514
0.665,0.956
0.6675,-0.457
0.67,-0.802
0.6725,-0.583
0.675,0.222
0.6775,0.194
0.68,0.522
0.6825,0.0784
0.685,0.0358
0.6875,0.861
0.69,0.819
0.6925,0.722
0.695,-0.0668
0.6975,-0.918
0.7,-0.466
0.7025,0.882
0.705,-0.182
0.7075,0.836
0.71,0.831
0.7125,-0.305
0.715,-0.293
0.7175,-0.554
0.72,0.147
0.7225,0.807
0.725,0.498
0.7275,-0.634
0.73,0.0108
0.7325,-0.215
0.735,0.566
0.7375,0.83
0.74,0.884
0.7425,-0.61
0.745,-0.639
0.7475,-0.168
0.75,-0.551
0.7525,-0.362
0.755,-0.0795
0.7575,0.55
0.76,-0.562
0.7625,-0.855
0.765,-0.676
0.7675,0.22
0.77,-0.943
0.7725,0.0768
0.775,0.11
0.7775,-0.863
0.78,-0.742
0.7825,0.671
0.785,0.261
0.7875,-0.527
0.79,-0.136
0.7925,-0.582
0.795,-0.628
0.7975,0.719
0.8,0.993
0.8025,0.814
0.805,0.288
0.8075,-0.371
0.81,-0.114
0.8125,0.0307
0.815,-0.43
0.8175,-0.259
0.82,-0.0651
0.8225,0.55
0.825,-0.0768
0.8275,-0.696
0.83,-0.819
0.8325,-0.581
0.835,-0.696
0.8375,-0.246
0.84,0.381
0.8425,0.093
0.845,0.634
0.8475,-0.145
0.85,-0.403
0.8525,0.197
0.855,-0.291
0.8575,0.133
0.86,0.697
0.8625,-0.475
0.865,0.249
0.8675,0.379
0.87,0.0981
0.8725,0.488
0.875,0.187
0.8775,0.799
0.88,0.401
0.8825,-0.0731
0.885,0.109
0.8875,-0.598
0.89,0.203
0.8925,0.59
0.895,-0.0885
0.8975,0.176
0.9,-0.137
0.9025,0.137
0.905,0.153
0.9075,1.02
0.91,1.05
0.9125,0.513
0.915,-0.58
0.9175,-0.666
0.92,0.0858
0.9225,-0.802
0.925,-0.424
0.9275,-0.934
0.93,-0.893
0.9325,-0.99
0.935,0.403
0.9375,0.463
0.94,0.376
0.9425,-0.435
0.945,-0.792
0.9475,0.959
0.95,0.137
0.9525,-0.0751
0.955,1.12
0.9575,0.0781
0.96,-0.891
0.9625,-0.397
0.965,0.257
0.9675,0.751
0.97,-0.0181
0.9725,-0.853
0.975,0.507
0.9775,0.0138
0.98,-0.129
0.9825,-0.656
0.985,-0.373
0.9875,0.226
0.99,0.584
0.9925,0.308
0.995,-0.267
0.9975,0.233
1,-0.465
1.0025,-0.012
1.005,0
1.0075,-0.164
1.01,0.0399
1.0125,0.0794
1.015,0.101
1.0175,0.0898
1.02,0.0965
1.0225,0.12
1.025,0.113
1.0275,0.0697
1.03,0.0346
1.0325,0.0726
1.035,0.0407
1.0375,0.0587
1.04,0.0776
1.0425,0.0579
1.045,0.107
1.0475,0.0913
1.05,0.0907
1.0525,0.117
1.055,0.0612
1.0575,0.121
1.06,0.065
1.0625,0.0662
1.065,0.0919
1.0675,0.118
1.07,0.0437
1.0725,0.0706
1.075,0.102
1.0775,0.101
1.08,0.0853
1.0825,0.0719
1.085,0.0762
1.0875,0.113
1.09,0.0654
1.0925,0.0445
1.095,0.0817
1.0975,0.0601
1.1,0.0862
1.1025,0.0501
1.105,0.0931
1.1075,0.0547
1.11,0.0494
1.1125,0.0507
1.115,0.0763
1.1175,0.103
1.12,0.0751
1.1225,0.0732
1.125,0.0248
1.1275,0.113
1.13,0.0548
1.1325,0.113
1.135,0.0368
1.1375,0.055
1.14,0.0934
1.1425,0.084
1.145,0.131
1.1475,0.0679
1.15,0.0737
1.1525,0.0599
1.155,0.036
1.1575,0.0895
1.16,0.0616
1.1625,0.0611
1.165,0.0764
1.1675,0.0738
1.17,0.0645
1.1725,0.11
1.175,0.0835
1.1775,0.0492
1.18,0.135
1.1825,0.11
1.185,0.0794
1.1875,0.126
1.19,0.078
1.1925,0.0716
1.195,0.0325
1.1975,0.0587
1.2,0.0437
1.2025,0.0718
1.205,0.0719
1.2075,0.0717
1.21,0.0511
1.2125,0.107
1.215,0.0989
1.2175,0.0753
1.22,0.0296
1.2225,0.0623
1.225,0.0799
1.2275,0.0473
1.23,0.082
1.2325,0.0393
1.235,0.0549
1.2375,0.0734
1.24,0.0925
1.2425,0.11
1.245,0.111
1.2475,0.0904
1.25,0.0449
1.2525,0.0356
1.255,0.0992
1.2575,0.0781
1.26,0.0374
1.2625,0.0815
1.265,0.06
1.2675,0.125
1.27,0.07
1.2725,0.0981
1.275,0.0412
1.2775,0.0505
1.28,0.0983
1.2825,0.0366
1.285,0.0617
1.2875,0.0342
1.29,0.0942
1.2925,0.0705
1.295,0.106
1.2975,0.105
1.3,0.132
1.3025,0.0501
1.305,0.117
1.3075,0.1
1.31,0.0572
1.3125,0.0496
1.315,0.0799
1.3175,0.0377
1.32,0.124
1.3225,0.113
1.325,0.0471
1.3275,0.0648
1.33,0.0779
1.3325,0.0952
1.335,0.0671
1.3375,0.0913
1.34,0.0489
1.3425,0.0648
1.345,0.0353
1.3475,0.088
1.35,0.032
1.3525,0.0734
1.355,0.0577
1.3575,0.0345
1.36,0.0517
1.3625,0.0641
1.365,0.119
1.3675,0.067
1.37,0.0933
1.3725,0.158
1.375,0.701
1.3775,0.731
1.38,-0.143
1.3825,0.842
1.385,0.719
1.3875,0.963
1.39,0.757
1.3925,-0.718
1.395,-0.898
1.3975,-0.36
1.4,0.113
1.4025,-0.0218
1.405,-0.431
1.4075,0.829
1.41,-0.187
1.4125,1.04
1.415,0.546
1.4175,-0.339
1.42,-1.08
1.4225,0.443
1.425,-0.363
1.4275,0.372
1.43,0.46
1.4325,0.298
1.435,-0.573
1.4375,-0.577
1.44,0.986
1.4425,0.492
1.445,-0.543
1.4475,-0.734
1.45,0.438
1.4525,0.494
1.455,-0.0003
1.4575,-0.331
1.46,-0.411
1.4625,0.425
1.465,0.0834
1.4675,0.41
1.47,0.755
1.4725,0.67
1.475,-0.71
1.4775,0.548
1.48,0.448
1.4825,0.758
1.485,0.3
1.4875,0.602
1.49,0.614
1.4925,0.291
1.495,-0.787
1.4975,-0.821
1.5,0.777
1.5025,-1.03
1.505,0.555
1.5075,0.565
1.51,0.802
1.5125,0.636
1.515,-0.775
1.5175,0.378
1.52,-0.0891
1.5225,-0.87
1.525,0.0366
1.5275,0.747
1.53,0.493
1.5325,0.65
1.535,-0.849
1.5375,-0.198
1.54,-0.103
1.5425,-1.01
1.545,0.211
1.5475,0.578
1.55,-0.532
1.5525,0.307
1.555,-0.537
1.5575,-0.582
1.56,-0.205
1.5625,-0.648
1.565,-0.22
1.5675,0.39
1.57,0.505
1.5725,0.905
1.575,0.362
1.5775,-0.859
1.58,-0.398
1.5825,0.407
1.585,0.563
1.5875,0.758
1.59,-0.987
1.5925,0.811
1.595,-0.316
1.5975,0.933
1.6,0.0441
1.6025,-0.38
1.605,0.223
1.6075,0.195
1.61,0.851
1.6125,-0.497
1.615,-0.0809
1.6175,0.549
1.62,0.0096
1.6225,-0.215
1.625,0.0905
1.6275,-0.428
1.63,-0.57
1.6325,-0.0068
1.635,0.785
1.6375,-0.712
1.64,-0.961
1.6425,-0.154
1.645,1.4
1.6475,0.396
1.65,0.159
1.6525,-0.174
1.655,1
1.6575,0.821
1.66,0.962
1.6625,0.728
1.665,0.777
1.6675,0.128
1.67,1.07
1.6725,-0.0049
1.675,0.714
1.6775,0.503
1.68,-0.017
1.6825,-0.893
1.685,0.439
1.6875,-0.24
1.69,0.451
1.6925,0.516
1.695,-0.654
1.6975,0.226
1.7,0.593
1.7025,-0.572
1.705,-0.324
1.7075,-0.277
1.71,-0.371
1.7125,-0.31
1.715,-0.135
1.7175,-0.227
1.72,-0.175
1.7225,0.23
1.725,0.791
1.7275,0.534
1.73,-0.0099
1.7325,-0.339
1.735,-0.0658
1.7375,-0.0062
1.74,0.924
1.7425,0.0678
1.745,-0.353
1.7475,0.117
1.75,0.248
1.7525,-0.983
1.755,-0.473
1.7575,-0.647
1.76,-0.753
1.7625,-0.434
1.765,0.185
1.7675,1.03
1.77,0.288
1.7725,-0.0783
1.775,-0.228
1.7775,-0.0735
1.78,-0.446
1.7825,0.702
1.785,0.201
1.7875,0.764
1.79,-0.351
1.7925,0.787
1.795,-0.0872
1.7975,0.294
1.8,0.447
1.8025,0.154
1.805,0.361
1.8075,-0.299
1.81,0.389
1.8125,0.845
1.815,-0.571
1.8175,-0.172
1.82,0.861
1.8225,-0.333
1.825,0.0458
1.8275,-0.135
1.83,-0.671
1.8325,0.964
1.835,-0.551
1.8375,-0.834
1.84,0.25
1.8425,-0.0597
1.845,-0.527
1.8475,0.563
1.85,0.184
1.8525,-0.205
1.855,-0.846
1.8575,0.769
1.86,0.288
1.8625,-0.695
1.865,-0.163
1.8675,0.88
1.87,0.419
1.8725,-0.761
1.875,0.362
1.8775,-0.55
1.88,0.354
1.8825,0.0178
1.885,-0.228
1.8875,-0.358
1.89,-0.596
1.8925,0.542
1.895,1.01
1.8975,-0.135
1.9,0.636
1.9025,0.508
1.905,0.682
1.9075,0.634
1.91,0.417
1.9125,-0.0057
1.915,-0.711
1.9175,-0.243
1.92,0.843
1.9225,0.733
1.925,-0.515
1.9275,-0.544
1.93,0.894
1.9325,0.716
1.935,-0.197
1.9375,0.616
1.94,-0.168
1.9425,0.755
1.945,-0.523
1.9475,-0.546
1.95,-0.942
1.9525,-0.466
1.955,-0.525
1.9575,0.198
1.96,0.57
1.9625,-0.262
1.965,0.195
1.9675,0.0626
1.97,0.238
1.9725,-0.344
1.975,-0.787
1.9775,0.672
1.98,-0.38
1.9825,0.0928
1.985,0.606
1.9875,-0.0808
1.99,-0.127
1.9925,-0.114
1.995,0.616
1.9975,0.892
2,0.665
2.0025,0.0405
2.005,0.149
2.0075,-0.522
2.01,0.436
2.0125,-0.54
2.015,0.125
2.0175,0.0904
2.02,0.139
2.0225,0.0937
2.025,0.088
2.0275,0.115
2.03,0.0438
2.0325,0.0754
2.035,0.135
2.0375,0.0623
2.04,0.0574
2.0425,0.0663
2.045,0.0784
2.0475,0.0746
2.05,0.104
2.0525,0.0352
2.055,0.0793
2.0575,0.0177
2.06,0.0767
2.0625,0.128
2.065,0.0555
2.0675,0.0632
2.07,0.0504
2.0725,0.0659
2.075,0.0816
2.0775,0.0472
2.08,0.0915
2.0825,0.123
2.085,0.0732
2.0875,0.0853
2.09,0.0948
2.0925,0.0318
2.095,0.0689
2.0975,0.0475
2.1,0.0594
2.1025,0.0426
2.105,0.0884
2.1075,0.106
2.11,0.0875
2.1125,0.0702
2.115,0.0593
2.1175,0.0887
2.12,0.0702
2.1225,0.0722
2.125,0.055
2.1275,0.0492
2.13,0.03
2.1325,0.0431
2.135,0.141
2.1375,0.0282
2.14,0.124
2.1425,0.0734
2.145,0.0833
2.1475,0.0533
2.15,0.116
2.1525,0.121
2.155,0.112
2.1575,0.0915
2.16,0.0939
2.1625,0.0372
2.165,0.0516
2.1675,0.0936
2.17,0.117
2.1725,0.0512
2.175,0.0549
2.1775,0.0831
2.18,0.0768
2.1825,0.113
2.185,0.068
2.1875,0.078
2.19,0.0551
2.1925,0.063
2.195,0.0563
2.1975,0.0643
2.2,0.0241
2.2025,0.0519
2.205,0.0208
2.2075,0.101
2.21,0.0419
2.2125,0.0922
2.215,0.0757
2.2175,0.0705
2.22,0.0641
2.2225,0.0661
2.225,0.107
2.2275,0.0587
2.23,0.0423
2.2325,0.0864
2.235,0.0906
2.2375,0.0736
2.24,0.0588
2.2425,0.089
2.245,0.0655
2.2475,0.0851
2.25,0.0548
2.2525,0.0769
2.255,0.0376
2.2575,0.0803
2.26,0.0887
2.2625,0.0481
2.265,0.103
2.2675,0.0635
2.27,0.118
2.2725,0.0855
2.275,0.0766
2.2775,0.107
2.28,0.106
2.2825,0.063
2.285,0.092
2.2875,0.0862
2.29,0.0295
2.2925,0.131
2.295,0.0467
2.2975,0.0807
2.3,0.0484
2.3025,0.0387
2.305,0.106
2.3075,0.0548
2.31,0.08
2.3125,0.067
2.315,0.0347
2.3175,0.127
2.32,0.08
2.3225,0.0897
2.325,0.115
2.3275,0.108
2.33,0.0927
2.3325,0.0603
2.335,0.0691
2.3375,0.0829
2.34,0.06
2.3425,0.108
2.345,0.0403
2.3475,0.0557
2.35,0.108
2.3525,0.0894
2.355,0.114
2.3575,0.106
2.36,0.0353
2.3625,0.0422
2.365,0.0951
2.3675,0.0906
2.37,0.0803
2.3725,0.0684
2.375,0.0938
2.3775,0.0676
2.38,0.786
2.3825,0.0719
2.385,-0.375
2.3875,-0.399
2.39,0.171
2.3925,0.494
2.395,-0.328
2.3975,0.336
2.4,1.05
2.4025,-0.628
2.405,0.282
2.4075,0.804
2.41,-0.609
2.4125,0.309
2.415,-0.129
2.4175,-0.6
2.42,-0.409
2.4225,-0.594
2.425,-0.413
2.4275,-0.463
2.43,-0.788
2.4325,0.257
2.435,0.834
2.4375,-0.107
2.44,0.565
2.4425,0.298
2.445,0.787
2.4475,0.447
2.45,-0.525
2.4525,-0.647
2.455,0.843
2.4575,-0.0505
2.46,-0.566
2.4625,-0.945
2.465,1
2.4675,0.0138
2.47,0.196
2.4725,-0.161
2.475,-0.47
2.4775,-0.788
2.48,0.0063
2.4825,-0.213
2.485,0.567
2.4875,0.386
2.49,-0.182
2.4925,0.559
2.495,-0.723
2.4975,0.97
2.5,0.0621
2.5025,0.0002
2.505,0.834
2.5075,-0.716
2.51,0.974
2.5125,0.726
2.515,0.518
2.5175,-0.0945
2.52,0.546
2.5225,-0.489
2.525,-0.529
2.5275,1.07
2.53,0.719
2.5325,0.61
2.535,0.788
2.5375,0.399
2.54,0.533
2.5425,0.106
2.545,0.457
2.5475,0.0301
2.55,0.0474
2.5525,-0.0076
2.555,0.283
2.5575,-0.847
2.56,-0.853
2.5625,-0.225
2.565,-0.234
2.5675,-1.02
2.57,-0.475
2.5725,-0.314
2.575,-0.131
2.5775,0.443
2.58,0.611
2.5825,-0.119
2.585,0.212
2.5875,0.682
2.59,-0.425
2.5925,-0.587
2.595,-0.591
2.5975,-0.905
2.6,0.436
2.6025,-0.544
2.605,0.942
2.6075,-0.749
2.61,-0.0703
2.6125,-0.917
2.615,0.552
2.6175,-0.0625
2.62,0.581
2.6225,0.735
2.625,0.129
2.6275,0.514
2.63,-0.396
2.6325,-0.766
2.635,-0.438
2.6375,0.504
2.64,1.05
2.6425,0.0605
2.645,0.0241
2.6475,-0.401
2.65,-0.502
2.6525,0.26
2.655,1.14
2.6575,-0.286
2.66,-0.486
2.6625,0.62
2.665,-0.575
2.6675,1.03
2.67,-0.621
2.6725,-0.189
2.675,0.176
2.6775,-0.662
2.68,0.325
2.6825,0.617
2.685,-0.302
2.6875,0.526
2.69,0.0577
2.6925,-0.408
2.695,0.0995
2.6975,1.12
2.7,0.178
2.7025,0.537
2.705,-0.414
2.7075,0.149
2.71,0.376
2.7125,-0.657
2.715,-0.629
2.7175,1.17
2.72,-0.845
2.7225,-0.634
2.725,0.576
2.7275,-0.0506
2.73,-0.682
2.7325,1.25
2.735,-0.179
2.7375,0.75
2.74,-0.0921
2.7425,0.892
2.745,-0.312
2.7475,1.03
2.75,-0.687
2.7525,0.173
2.755,-0.24
2.7575,0.32
2.76,0.155
2.7625,-0.073
2.765,-0.755
2.7675,0.041
2.77,-1.07
2.7725,-0.689
2.775,-0.296
2.7775,0.902
2.78,0.191
2.7825,0.63
2.785,0.437
2.7875,0.855
2.79,0.788
2.7925,0.844
2.795,-0.482
2.7975,0.619
2.8,-0.501
2.8025,-0.481
2.805,-0.698
2.8075,0.288
2.81,0.501
2.8125,-0.921
2.815,0.0158
2.8175,-0.907
2.82,-0.1
2.8225,0.349
2.825,-0.278
2.8275,1.02
2.83,0.763
2.8325,-0.509
2.835,-0.0984
2.8375,0.795
2.84,0.929
2.8425,-0.153
2.845,-0.309
2.8475,-0.438
2.85,0.93
2.8525,-0.172
2.855,0.337
2.8575,0.59
2.86,-0.217
2.8625,-0.26
2.865,-0.729
2.8675,-0.612
2.87,-0.312
2.8725,0.0661
2.875,-0.249
2.8775,-0.612
2.88,0.669
2.8825,-0.521
2.885,1.01
2.8875,0.351
2.89,-0.17
2.8925,1.12
2.895,-0.105
2.8975,-0.273
2.9,0.457
2.9025,-0.834
2.905,0.357
2.9075,0.5
2.91,-0.0295
2.9125,-0.204
2.915,0.226
2.9175,0.829
2.92,0.387
2.9225,0.0514
2.925,0.449
2.9275,-0.831
2.93,-0.267
2.9325,0.229
2.935,-0.226
2.9375,-0.0635
2.94,-0.479
2.9425,0.667
2.945,0.408
2.9475,0.927
2.95,0.632
2.9525,-0.137
2.955,-0.305
2.9575,-0.0501
2.96,-0.28
2.9625,0.459
2.965,0.545
2.9675,-0.337
2.97,-0.503
2.9725,0.889
2.975,-0.239
2.9775,-0.176
2.98,-0.994
2.9825,0.7
2.985,0.029
2.9875,0.491
2.99,0.517
2.9925,0.607
2.995,0.749
2.9975,0.232
3,-0.531
3.0025,-0.739
3.005,0.951
3.0075,0.692
3.01,-0.873
3.0125,-0.534
3.015,-0.666
3.0175,-0.397
3.02,0.106
3.0225,0.11
3.025,0.0577
3.0275,0.0387
3.03,0.068
3.0325,0.0522
3.035,0.103
3.0375,0.109
3.04,0.0489
3.0425,0.0479
3.045,0.0734
3.0475,0.111
3.05,0.0552
3.0525,0.0681
3.055,0.102
3.0575,0.0743
3.06,0.113
3.0625,0.0455
3.065,0.0662
3.0675,0.0956
3.07,0.0969
3.0725,0.0696
3.075,0.0211
3.0775,0.0306
3.08,0.0321
3.0825,0.0442
3.085,0.0717
3.0875,0.059
3.09,0.0801
3.0925,0.0856
3.095,0.062
3.0975,0.0806
3.1,0.0868
3.1025,0.103
3.105,0.0622
3.1075,0.102
3.11,0.0815
3.1125,0.0438
3.115,0.0816
3.1175,0.063
3.12,0.0507
3.1225,0.0702
3.125,0.0303
3.1275,0.119
3.13,0.0603
3.1325,0.0622
3.135,0.112
3.1375,0.0773
3.14,0.0936
3.1425,0.0243
3.145,0.117
3.1475,0.0262
3.15,0.0385
3.1525,0.0531
3.155,0.088
3.1575,0.0847
3.16,0.0485
3.1625,0.0687
3.165,0.0994
3.1675,0.0442
3.17,0.0806
3.1725,0.0418
3.175,0.12
3.1775,0.0833
3.18,0.048
3.1825,0.101
3.185,0.0945
3.1875,0.114
3.19,0.0265
3.1925,0.1
3.195,0.109
3.1975,0.0699
3.2,0.0478
3.2025,0.0886
3.205,0.101
3.2075,0.0779
3.21,0.0815
3.2125,0.0799
3.215,0.104
3.2175,0.0495
3.22,0.0457
3.2225,0.0998
3.225,0.0336
3.2275,0.122
3.23,0.0989
3.2325,0.0386
3.235,0.0627
3.2375,0.085
3.24,0.0697
3.2425,0.0864
3.245,0.1
3.2475,0.0682
3.25,0.114
3.2525,0.0754
3.255,0.0519
3.2575,0.117
3.26,0.141
3.2625,0.0925
3.265,0.0648
3.2675,0.105
3.27,0.082
3.2725,0.0993
3.275,0.092
3.2775,0.0432
3.28,0.0974
3.2825,0.0401
3.285,0.071
3.2875,0.0985
3.29,0.123
3.2925,0.0837
3.295,0.0587
3.2975,0.0468
3.3,0.0456
3.3025,0.106
3.305,0.128
3.3075,0.0664
3.31,0.0704
3.3125,0.0796
3.315,0.0672
3.3175,0.0342
3.32,0.119
3.3225,0.117
3.325,0.0607
3.3275,0.0717
3.33,0.0326
3.3325,0.0765
3.335,0.0395
3.3375,0.109
3.34,0.0755
3.3425,0.0931
3.345,0.0977
3.3475,0.0572
3.35,0.0571
3.3525,0.0586
3.355,0.0855
3.3575,0.0371
3.36,0.0656
3.3625,0.112
3.365,0.033
3.3675,0.112
3.37,0.0937
3.3725,0.0737
3.375,0.0847
3.3775,0.0889
3.38,0.0579
3.3825,0.138
3.385,0.569
3.3875,0.769
3.39,-0.759
3.3925,-0.276
3.395,0.226
3.3975,-0.332
3.4,-0.624
3.4025,0.496
3.405,0.189
3.4075,0.368
3.41,-0.375
3.4125,0.573
3.415,-0.114
3.4175,-0.344
3.42,0.506
3.4225,0.206
3.425,0.384
3.4275,0.39
3.43,0.0716
3.4325,1.01
3.435,0.997
3.4375,0.373
3.44,-0.855
3.4425,1
3.445,0.2
3.4475,-0.121
3.45,0.271
3.4525,-0.396
3.455,-0.123
3.4575,0.0428
3.46,-0.378
3.4625,-0.733
3.465,0.312
3.4675,0.696
3.47,-0.53
3.4725,0.269
3.475,0.46
3.4775,0.599
3.48,0.219
3.4825,-0.145
3.485,-0.406
3.4875,-0.903
3.49,0.348
3.4925,-0.12
3.495,-0.57
3.4975,0.836
3.5,-0.454
3.5025,0.203
3.505,0.905
3.5075,0.333
3.51,1.16
3.5125,0.229
3.515,0.426
3.5175,-0.007
3.52,-0.558
3.5225,-0.563
3.525,0.189
3.5275,-0.832
3.53,-0.515
3.5325,-0.0716
3.535,-0.679
3.5375,0.0927
3.54,0.583
3.5425,0.0408
3.545,-0.629
3.5475,-0.623
3.55,0.903
3.5525,-0.942
3.555,0.218
3.5575,-0.973
3.56,0.793
3.5625,0.171
3.565,1
3.5675,0.093
3.57,-0.531
3.5725,0.925
3.575,-0.208
3.5775,0.321
3.58,-0.0994
3.5825,0.412
3.585,-0.836
3.5875,-0.161
3.59,-0.286
3.5925,0.617
3.595,0.491
3.5975,-0.361
3.6,0.571
3.6025,0.26
3.605,0.543
3.6075,-0.404
3.61,0.46
3.6125,0.122
3.615,0.111
3.6175,0.958
3.62,-0.208
3.6225,-0.358
3.625,0.519
3.6275,-0.193
3.63,-0.903
3.6325,-0.777
3.635,1.1
3.6375,0.787
3.64,-0.166
3.6425,-0.0851
3.645,0.67
3.6475,-0.817
3.65,0.0842
3.6525,-0.825
3.655,-0.849
3.6575,0.27
3.66,0.962
3.6625,0.139
3.665,1.11
3.6675,0.223
3.67,0.659
3.6725,0.208
3.675,0.761
3.6775,0.476
3.68,0.387
3.6825,0.0213
3.685,-1
3.6875,0.746
3.69,0.0102
3.6925,-0.196
3.695,0.136
3.6975,-0.313
3.7,0.803
3.7025,0.538
3.705,0.846
3.7075,0.319
3.71,-0.719
3.7125,0.838
3.715,-0.325
3.7175,-0.131
3.72,-0.775
3.7225,0.676
3.725,-0.412
3.7275,-0.388
3.73,-0.255
3.7325,0.75
3.735,-0.306
3.7375,0.121
3.74,-0.267
3.7425,-0.304
3.745,-0.0184
3.7475,0.522
3.75,0.45
3.7525,-0.431
3.755,-0.0397
3.7575,0.793
3.76,0.579
3.7625,-0.533
3.765,0.409
3.7675,0.373
3.77,-0.5
3.7725,0.0825
3.775,-0.28
3.7775,-0.566
3.78,0.25
3.7825,-0.189
3.785,-0.829
3.7875,0.572
3.79,-0.752
3.7925,-0.464
3.795,0.321
3.7975,-0.264
3.8,1.02
3.8025,-0.893
3.805,0.136
3.8075,-0.0745
3.81,0.0681
3.8125,0.0135
3.815,-0.683
3.8175,-0.257
3.82,-0.562
3.8225,0.252
3.825,-1.08
3.8275,0.1
3.83,0.923
3.8325,0.536
3.835,0.945
3.8375,-0.153
3.84,0.471
3.8425,-0.24
3.845,-0.348
3.8475,-0.494
3.85,-0.734
3.8525,0.562
3.855,0.261
3.8575,0.457
3.86,-0.99
3.8625,-0.193
3.865,0.789
3.8675,-0.541
3.87,0.778
3.8725,-0.339
3.875,0.127
3.8775,0.854
3.88,0.662
3.8825,0.722
3.885,-0.467
3.8875,0.383
3.89,-0.723
3.8925,-0.859
3.895,-0.589
3.8975,0.732
3.9,0.227
3.9025,0.141
3.905,-0.169
3.9075,0.906
3.91,0.244
3.9125,-0.55
3.915,-0.587
3.9175,-0.152
3.92,-0.691
3.9225,-0.862
3.925,0.193
3.9275,-0.585
3.93,0.879
3.9325,0.136
3.935,0.535
3.9375,-0.563
3.94,0.0379
3.9425,-0.303
3.945,-0.518
3.9475,0.0748
3.95,0.731
3.9525,0.377
3.955,0.386
3.9575,-0.326
3.96,0.463
3.9625,-0.0028
3.965,-0.188
3.9675,-0.557
3.97,-0.0972
3.9725,0.719
3.975,-0.4
3.9775,0.406
3.98,-0.295
3.9825,0.073
3.985,-0.303
3.9875,-0.558
3.99,0.584
3.9925,-0.497
3.995,-0.171
3.9975,-0.871
4,-0.836
4.0025,-0.226
4.005,0.912
4.0075,-0.289
4.01,-0.511
4.0125,0.0295
4.015,0.0776
4.0175,0.409
4.02,-0.744
4.0225,-0.0355
4.025,0.106
4.0275,0.0654
4.03,0.0498
4.0325,0.111
4.035,0.0656
4.0375,0.0298
4.04,0.0726
4.0425,0.0579
4.045,0.115
4.0475,0.0441
4.05,0.0312
4.0525,0.116
4.055,0.0945
4.0575,0.12
4.06,0.102
4.0625,0.124
4.065,0.052
4.0675,0.0614
4.07,0.0584
4.0725,0.0753
4.075,0.073
4.0775,0.122
4.08,0.0843
4.0825,0.0719
4.085,0.0761
4.0875,0.121
4.09,0.0844
4.0925,0.0538
4.095,0.121
4.0975,0.133
4.1,0.0944
4.1025,0.0475
4.105,0.0736
4.1075,0.0406
4.11,0.114
4.1125,0.0659
4.115,0.0264
4.1175,0.05
4.12,0.137
4.1225,0.0521
4.125,0.0641
4.1275,0.0989
4.13,0.1
4.1325,0.083
4.135,0.068
4.1375,0.117
4.14,0.0693
4.1425,0.031
4.145,0.0522
4.1475,0.0707
4.15,0.0346
4.1525,0.11
4.155,0.0447
4.1575,0.0887
4.16,0.139
4.1625,0.0811
4.165,0.0298
4.1675,0.121
4.17,0.114
4.1725,0.105
4.175,0.0971
4.1775,0.0835
4.18,0.121
4.1825,0.0208
4.185,0.0732
4.1875,0.12
4.19,0.114
4.1925,0.0721
4.195,0.0564
4.1975,0.0967
4.2,0.132
4.2025,0.111
4.205,0.126
4.2075,0.0792
4.21,0.119
4.2125,0.0601
4.215,0.116
4.2175,0.102
4.22,0.117
4.2225,0.112
4.225,0.0757
4.2275,0.127
4.23,0.0702
4.2325,0.105
4.235,0.0132
4.2375,0.0487
4.24,0.0392
4.2425,0.0772
4.245,0.0812
4.2475,0.0593
4.25,0.0771
4.2525,0.0982
4.255,0.0714
4.2575,0.0806
4.26,0.0594
4.2625,0.0788
4.265,0.0833
4.2675,0.0823
4.27,0.0512
4.2725,0.0703
4.275,0.0414
4.2775,0.0357
4.28,0.0766
4.2825,0.0488
4.285,0.0869
4.2875,0.107
4.29,0.0911
4.2925,0.0576
4.295,0.0735
4.2975,0.0566
4.3,0.132
4.3025,0.0956
4.305,0.0566
4.3075,0.0503
4.31,0.0863
4.3125,0.0867
4.315,0.0512
4.3175,0.0724
4.32,0.0347
4.3225,0.103
4.325,0.114
4.3275,0.0339
4.33,0.0777
4.3325,0.136
4.335,0.055
4.3375,0.108
4.34,0.06
4.3425,0.118
4.345,0.0791
4.3475,0.111
4.35,0.0877
4.3525,0.0948
4.355,0.0693
4.3575,0.12
4.36,0.0293
4.3625,0.104
4.365,0.0733
4.3675,0.0663
4.37,0.114
4.3725,0.0685
4.375,0.091
4.3775,0.0787
4.38,0.0746
4.3825,0.0565
4.385,0.103
4.3875,0.0488
4.39,0.405
4.3925,-0.535
4.395,0.269
4.3975,0.365
4.4,0.893
4.4025,-0.0796
4.405,0.442
4.4075,0.381
4.41,-0.985
4.4125,1.3
4.415,0.598
4.4175,0.177
4.42,0.512
4.4225,0.427
4.425,-0.846
4.4275,1.07
4.43,-0.408
4.4325,0.878
4.435,0.185
4.4375,0.329
4.44,-0.0171
4.4425,0.644
4.445,-0.415
4.4475,0.565
4.45,-0.283
4.4525,-0.421
4.455,0.196
4.4575,1.11
4.46,0.15
4.4625,0.106
4.465,-0.69
4.4675,0.331
4.47,0.359
4.4725,-0.769
4.475,0.376
4.4775,-0.284
4.48,-0.663
4.4825,0.453
4.485,0.731
4.4875,0.0283
4.49,0.625
4.4925,-0.487
4.495,0.173
4.4975,-0.349
4.5,-0.182
4.5025,0.272
4.505,-0.0899
4.5075,-0.651
4.51,0.474
4.5125,0.15
4.515,-0.874
4.5175,0.792
4.52,0.162
4.5225,-0.222
4.525,0.378
4.5275,0.345
4.53,-0.474
4.5325,0.659
4.535,0.348
4.5375,0.31
4.54,-0.428
4.5425,-0.173
4.545,0.342
4.5475,-0.757
4.55,-0.6
4.5525,-0.472
4.555,-0.134
4.5575,-0.207
4.56,0.368
4.5625,0.373
4.565,0.276
4.5675,-0.647
4.57,-0.0072
4.5725,0.611
4.575,0.65
4.5775,0.59
4.58,-0.517
4.5825,1.1
4.585,-0.783
4.5875,0.664
4.59,0.655
4.5925,-0.617
4.595,0.819
4.5975,1.22
4.6,-0.125
4.6025,0.203
4.605,0.675
4.6075,-0.226
4.61,0.146
4.6125,0.74
4.615,-0.117
4.6175,-0.453
4.62,-0.863
4.6225,-0.457
4.625,-0.304
4.6275,-0.491
4.63,-0.152
4.6325,-0.0184
4.635,0.348
4.6375,-0.955
4.64,0.169
4.6425,0.837
4.645,-0.635
4.6475,-0.441
4.65,-0.0864
4.6525,-1.06
4.655,-0.0761
4.6575,-0.204
4.66,0.272
4.6625,-0.508
4.665,0.414
4.6675,-0.769
4.67,1.16
4.6725,-0.338
4.675,-0.233
4.6775,0.21
4.68,0.948
4.6825,-0.606
4.685,0.622
4.6875,-0.322
4.69,0.794
4.6925,-0.152
4.695,-0.205
4.6975,-0.0639
4.7,0.453
4.7025,0.461
4.705,0.438
4.7075,-0.334
4.71,0.264
4.7125,-0.016
4.715,0.62
4.7175,-0.704
4.72,0.154
4.7225,0.751
4.725,0.684
4.7275,0.47
4.73,-0.484
4.7325,-0.0001
4.735,-0.724
4.7375,-0.356
4.74,0.576
4.7425,-1.05
4.745,0.259
4.7475,1.08
4.75,-0.673
4.7525,-0.483
4.755,0.393
4.7575,-0.046
4.76,0.756
4.7625,0.801
4.765,-0.52
4.7675,0.0154
4.77,-0.0039
4.7725,-0.101
4.775,0.929
4.7775,0.909
4.78,-0.22
4.7825,-0.571
4.785,0.0153
4.7875,-0.104
4.79,0.104
4.7925,-0.149
4.795,0.458
4.7975,0.473
4.8,-0.298
4.8025,0.563
4.805,-0.311
4.8075,0.628
4.81,0.6
4.8125,0.195
4.815,0.761
4.8175,0.444
4.82,0.143
4.8225,-0.689
4.825,-0.441
4.8275,0.627
4.83,0.0189
4.8325,-0.259
4.835,0.302
4.8375,0.357
4.84,0.0714
4.8425,-0.138
4.845,-0.198
4.8475,-0.245
4.85,0.895
4.8525,-0.0825
4.855,0.816
4.8575,-0.854
4.86,-0.688
4.8625,0.146
4.865,0.459
4.8675,-0.7
4.87,-0.339
4.8725,1.03
4.875,0.141
4.8775,0.444
4.88,0.758
4.8825,-0.924
4.885,-0.195
4.8875,-0.353
4.89,0.0374
4.8925,0.359
4.895,-0.695
4.8975,-0.219
4.9,0.394
4.9025,-0.476
4.905,0.0325
4.9075,0.803
4.91,-0.0513
4.9125,0.701
4.915,-0.351
4.9175,-0.445
4.92,-0.0869
4.9225,-0.156
4.925,0.0097
4.9275,1.16
4.93,-0.538
4.9325,0.593
4.935,0.624
4.9375,-0.765
4.94,0.373
4.9425,-0.295
4.945,-0.174
4.9475,-0.634
4.95,0.37
4.9525,0.485
4.955,-0.783
4.9575,0.367
4.96,-0.81
4.9625,-0.702
4.965,0.822
4.9675,-0.596
4.97,0.0176
4.9725,0.533
4.975,0.22
4.9775,0.282
4.98,0.499
4.9825,-0.0692
4.985,-0.146
4.9875,0.059
4.99,0.529
4.9925,0.779
4.995,0.456
4.9975,0.3
5,0.125
5.0025,-0.026
5.005,-0.579
5.0075,-0.182
5.01,-0.174
5.0125,0.472
5.015,-0.511
5.0175,-0.264
5.02,-0.585
5.0225,0.553
5.025,0.307
5.0275,-0.803
5.03,0.0446
5.0325,0.0832
5.035,0.0732
5.0375,0.1
5.04,0.0608
5.0425,0.0436
5.045,0.0612
5.0475,0.0597
5.05,0.104
5.0525,0.0858
5.055,0.031
5.0575,0.0627
5.06,0.103
5.0625,0.103
5.065,0.114
5.0675,0.0378
5.07,0.0775
5.0725,0.0881
5.075,0.0911
5.0775,0.0888
5.08,0.0946
5.0825,0.111
5.085,0.076
5.0875,0.134
5.09,0.0848
5.0925,0.0808
5.095,0.109
5.0975,0.0709
5.1,0.108
5.1025,0.0412
5.105,0.0423
5.1075,0.0652
5.11,0.0983
5.1125,0.0556
5.115,0.0973
5.1175,0.0677
5.12,0.0483
5.1225,0.12
5.125,0.0904
5.1275,0.0885
5.13,0.0481
5.1325,0.0212
5.135,0.0883
5.1375,0.0679
5.14,0.0479
5.1425,0.111
5.145,0.108
5.1475,0.0563
5.15,0.0639
5.1525,0.0852
5.155,0.116
5.1575,0.119
5.16,0.0483
5.1625,0.0826
5.165,0.0495
5.1675,0.132
5.17,0.0678
5.1725,0.0993
5.175,0.0758
5.1775,0.0784
5.18,0.0872
5.1825,0.0926
5.185,0.0997
5.1875,0.0747
5.19,0.0524
5.1925,0.113
5.195,0.0737
5.1975,0.128
5.2,0.0765
5.2025,0.108
5.205,0.13
5.2075,0.0293
5.21,0.0739
5.2125,0.037
5.215,0.0896
5.2175,0.0781
5.22,0.0422
5.2225,0.129
5.225,0.118
5.2275,0.123
5.23,0.0537
5.2325,0.0401
5.235,0.054
5.2375,0.0531
5.24,0.107
5.2425,0.0602
5.245,0.0414
5.2475,0.0534
5.25,0.0886
5.2525,0.0713
5.255,0.101
5.2575,0.131
5.26,0.0393
5.2625,0.0776
5.265,0.0682
5.2675,0.093
5.27,0.0529
5.2725,0.0982
5.275,0.105
5.2775,0.111
5.28,0.0917
5.2825,0.0423
5.285,0.102
5.2875,0.112
5.29,0.0939
5.2925,0.0423
5.295,0.0591
5.2975,0.0932
5.3,0.0904
5.3025,0.144
5.305,0.105
5.3075,0.0615
5.31,0.0898
5.3125,0.107
5.315,0.0657
5.3175,0.0671
5.32,0.0493
5.3225,0.0893
5.325,0.107
5.3275,0.0786
5.33,0.0676
5.3325,0.0621
5.335,0.0692
5.3375,0.0953
5.34,0.0766
5.3425,0.05
5.345,0.0961
5.3475,0.0829
5.35,0.11
5.3525,0.0956
5.355,0.0473
5.3575,0.118
5.36,0.0542
5.3625,0.0645
5.365,0.0801
5.3675,0.0594
5.37,0.0735
5.3725,0.135
5.375,0.0407
5.3775,0.0618
5.38,0.101
5.3825,0.0548
5.385,0.0516
5.3875,0.0912
5.39,0.0867
5.3925,0.0891
5.395,-0.0596
5.3975,0.536
5.4,-0.0332
5.4025,0.45
5.405,-0.611
5.4075,0.816
5.41,0.523
5.4125,-0.794
5.415,0.147
5.4175,-0.244
5.42,0.842
5.4225,0.0851
5.425,0.155
5.4275,0.091
5.43,0.207
5.4325,0.0795
5.435,-0.0797
5.4375,0.0534
5.44,0.207
5.4425,0.973
5.445,-0.066
5.4475,0.537
5.45,0.675
5.4525,-0.842
5.455,-0.979
5.4575,-0.362
5.46,0.265
5.4625,-0.638
5.465,1.01
5.4675,0.497
5.47,-0.0217
5.4725,0.904
5.475,0.49
5.4775,0.506
5.48,-1.12
5.4825,-0.125
5.485,-0.161
5.4875,0.0508
5.49,0.152
5.4925,0.931
5.495,-0.591
5.4975,0.296
5.5,-0.686
5.5025,-0.669
5.505,-0.372
5.5075,1.01
5.51,0.438
5.5125,1.04
5.515,0.0168
5.5175,0.516
5.52,0.694
5.5225,-0.31
5.525,0.392
5.5275,0.0609
5.53,0.166
5.5325,0.0709
5.535,-0.778
5.5375,-0.557
5.54,0.609
5.5425,0.297
5.545,0.0327
5.5475,-0.837
5.55,-0.0112
5.5525,0.556
5.555,-0.213
5.5575,0.182
5.56,0.0301
5.5625,0.834
5.565,-0.2
5.5675,-0.47
5.57,0.662
5.5725,-0.208
5.575,0.136
5.5775,0.34
5.58,0.388
5.5825,-1.09
5.585,0.278
5.5875,-0.035
5.59,-0.0712
5.5925,1.05
5.595,1.02
5.5975,-0.238
5.6,-0.355
5.6025,-0.739
5.605,-0.122
5.6075,-0.632
5.61,0.119
5.6125,-0.278
5.615,0.243
5.6175,-0.24
5.62,0.777
5.6225,-0.23
5.625,0.0818
5.6275,0.464
5.63,-0.24
5.6325,-0.194
5.635,0.474
5.6375,0.103
5.64,-0.854
5.6425,0.483
5.645,-0.614
5.6475,0.461
5.65,-0.0084
5.6525,0.929
5.655,1.03
5.6575,0.501
5.66,-0.976
5.6625,-0.0243
5.665,0.625
5.6675,0.798
5.67,0.532
5.6725,-0.737
5.675,0.566
5.6775,-0.527
5.68,-0.517
5.6825,-0.636
5.685,-0.205
5.6875,-0.237
5.69,-0.0197
5.6925,-0.19
5.695,0.264
5.6975,-0.284
5.7,-0.169
5.7025,0.66
5.705,0.511
5.7075,0.284
5.71,0.337
5.7125,0.0691
5.715,0.313
5.7175,-0.0927
5.72,-0.475
5.7225,1.07
5.725,0.805
5.7275,0.603
5.73,0.0128
5.7325,-0.761
5.735,-0.648
5.7375,-0.694
5.74,0.0775
5.7425,0.773
5.745,-0.794
5.7475,-0.381
5.75,0.864
5.7525,-0.244
5.755,-0.624
5.7575,0.583
5.76,1.01
5.7625,0.432
5.765,1
5.7675,0.571
5.77,-0.331
5.7725,-0.169
5.775,0.682
5.7775,0.479
5.78,-0.418
5.7825,0.465
5.785,-0.0522
5.7875,-0.43
5.79,-0.375
5.7925,0.645
5.795,0.323
5.7975,-0.509
5.8,-0.618
5.8025,0.719
5.805,0.531
5.8075,0.221
5.81,0.293
5.8125,-0.504
5.815,0.389
5.8175,-0.43
5.82,0.206
5.8225,-0.436
5.825,0.108
5.8275,-0.451
5.83,-0.691
5.8325,-0.804
5.835,0.705
5.8375,-0.495
5.84,-0.299
5.8425,-0.225
5.845,-0.45
5.8475,-0.314
5.85,0.5
5.8525,-0.029
5.855,-0.722
5.8575,0.312
5.86,-0.664
5.8625,0.53
5.865,0.468
5.8675,-0.849
5.87,0.631
5.8725,0.437
5.875,-0.395
5.8775,1.08
5.88,-0.056
5.8825,1.12
5.885,0.207
5.8875,0.863
5.89,0.459
5.8925,-0.595
5.895,-0.0966
5.8975,0.798
5.9,-0.173
5.9025,1.1
5.905,0.139
5.9075,-0.431
5.91,-0.505
5.9125,0.195
5.915,0.514
5.9175,-0.619
5.92,0.767
5.9225,-0.494
5.925,-0.332
5.9275,0.584
5.93,0.723
5.9325,0.148
5.935,-0.04
5.9375,0.329
5.94,1.1
5.9425,0.512
5.945,0.286
5.9475,-0.0955
5.95,-0.412
5.9525,-0.522
5.955,-0.501
5.9575,0.0965
5.96,0.469
5.9625,0.504
5.965,0.493
5.9675,-0.111
5.97,1.02
5.9725,-0.646
5.975,-0.0252
5.9775,-0.237
5.98,0.189
5.9825,-0.303
5.985,0.14
5.9875,0.719
5.99,0.29
5.9925,0.889
5.995,-0.553
5.9975,-0.542
6,-0.256
6.0025,0.79
6.005,0.55
6.0075,-0.331
6.01,0.668
6.0125,0.334
6.015,1.06
6.0175,0.992
6.02,-1.04
6.0225,0.139
6.025,-0.608
6.0275,0.407
6.03,0.0207
6.0325,0.159
6.035,-0.165
6.0375,0.13
6.04,0.0541
6.0425,0.0259
6.045,0.034
6.0475,0.0376
6.05,0.0577
6.0525,0.0567
6.055,0.11
6.0575,0.0479
6.06,0.125
6.0625,0.0647
6.065,0.076
6.0675,0.137
6.07,0.0541
6.0725,0.11
6.075,0.0344
6.0775,0.0625
6.08,0.0778
6.0825,0.0524
6.085,0.0806
6.0875,0.0611
6.09,0.0538
6.0925,0.0455
6.095,0.0675
6.0975,0.0738
6.1,0.0427
6.1025,0.116
6.105,0.0734
6.1075,0.091
6.11,0.0869
6.1125,0.0329
6.115,0.099
6.1175,0.118
6.12,0.0825
6.1225,0.103
6.125,0.104
6.1275,0.054
6.13,0.0636
6.1325,0.0373
6.135,0.0661
6.1375,0.0588
6.14,0.0936
6.1425,0.0478
6.145,0.0327
6.1475,0.088
6.15,0.114
6.1525,0.0987
6.155,0.0355
6.1575,0.134
6.16,0.0464
6.1625,0.0544
6.165,0.0498
6.1675,0.0812
6.17,0.0517
6.1725,0.0826
6.175,0.086
6.1775,0.0712
6.18,0.0534
6.1825,0.115
6.185,0.0821
6.1875,0.0613
6.19,0.1
6.1925,0.0685
6.195,0.125
6.1975,0.0817
6.2,0.108
6.2025,0.0591
6.205,0.0798
6.2075,0.0795
6.21,0.107
6.2125,0.104
6.215,0.0754
6.2175,0.116
6.22,0.0958
6.2225,0.0647
6.225,0.118
6.2275,0.0775
6.23,0.0767
6.2325,0.0935
6.235,0.066
6.2375,0.121
6.24,0.102
6.2425,0.0855
6.245,0.0674
6.2475,0.0702
6.25,0.0774
6.2525,0.0712
6.255,0.0895
6.2575,0.0881
6.26,0.118
6.2625,0.0814
6.265,0.125
6.2675,0.0344
6.27,0.0619
6.2725,0.108
6.275,0.0537
6.2775,0.117
6.28,0.105
6.2825,0.0637
6.285,0.0872
6.2875,0.119
6.29,0.0853
6.2925,0.104
6.295,0.0316
6.2975,0.107
6.3,0.105
6.3025,0.0661
6.305,0.0794
6.3075,0.0785
6.31,0.0525
6.3125,0.071
6.315,0.113
6.3175,0.0386
6.32,0.0776
6.3225,0.0493
6.325,0.0991
6.3275,0.113
6.33,0.125
6.3325,0.057
6.335,0.0929
6.3375,0.0932
6.34,0.0442
6.3425,0.115
6.345,0.0723
6.3475,0.0683
6.35,0.028
6.3525,0.105
6.355,0.0553
6.3575,0.115
6.36,0.0487
6.3625,0.122
6.365,0.0296
6.3675,0.0548
6.37,0.0741
6.3725,0.0501
6.375,0.119
6.3775,0.121
6.38,0.0956
6.3825,0.088
6.385,0.0847
6.3875,0.101
6.39,0.0854
6.3925,0.104
6.395,0.0501
6.3975,0.0771
6.4,0.104
6.4025,0.0935
6.405,0.0329
6.4075,0.103
6.41,0.13
6.4125,0.0516
6.415,0.0473
6.4175,0.0418
6.42,0.0425
6.4225,0.0712
6.425,0.0543
6.4275,0.108
6.43,0.037
6.4325,0.0684
6.435,0.132
6.4375,0.0839
6.44,0.121
6.4425,0.0846
6.445,0.0778
6.4475,0.109
6.45,0.0612
6.4525,0.084
6.455,0.0592
6.4575,0.103
6.46,0.0531
6.4625,0.0479
6.465,0.0759
6.4675,0.0653
6.47,0.0782
6.4725,0.146
6.475,0.0769
6.4775,0.114
6.48,0.0368
6.4825,0.121
6.485,0.0555
6.4875,0.0224
6.49,0.109
6.4925,0.0714
6.495,0.0481
6.4975,0.122
6.5,0.0276
6.5025,0.118
6.505,0.039
6.5075,0.0472
6.51,0.0396
6.5125,0.0451
6.515,0.0989
6.5175,0.0962
6.52,0.0753
6.5225,0.054
6.525,0.102
6.5275,0.0239
6.53,0.0457
6.5325,0.084
6.535,0.0591
6.5375,0.0383
6.54,0.104
6.5425,0.0475
6.545,0.0413
6.5475,0.079
6.55,0.104
6.5525,0.0823
6.555,0.122
6.5575,0.0949
6.56,0.053
6.5625,0.0714
6.565,0.0677
6.5675,0.107
6.57,0.0478
6.5725,0.125
6.575,0.0568
6.5775,0.083
6.58,0.098
6.5825,0.0906
6.585,0.0758
6.5875,0.0809
6.59,0.0617
6.5925,0.0429
6.595,0.0782
6.5975,0.0689
6.6,0.122
6.6025,0.0717
6.605,0.11
6.6075,0.0936
6.61,0.0412
6.6125,0.0622
6.615,0.0946
6.6175,0.0484
6.62,0.0584
6.6225,0.0566
6.625,0.101
6.6275,0.0602
6.63,0.11
6.6325,0.0945
6.635,0.0687
6.6375,0.0548
6.64,0.0579
6.6425,0.0273
6.645,0.13
6.6475,0.0374
6.65,0.0976
6.6525,0.0505
6.655,0.106
6.6575,0.0839
6.66,0.0899
6.6625,0.0617
6.665,0.0082
6.6675,0.0515
6.67,0.109
6.6725,0.051
6.675,0.114
6.6775,0.103
6.68,0.0957
6.6825,0.0311
6.685,0.0715
6.6875,0.101
6.69,0.0897
6.6925,0.0733
6.695,0.0672
6.6975,0.0907
6.7,0.0388
6.7025,0.118
6.705,0.112
6.7075,0.0427
6.71,0.0947
6.7125,0.0415
6.715,0.074
6.7175,0.0785
6.72,0.0944
6.7225,0.0363
6.725,0.041
6.7275,0.112
6.73,0.12
6.7325,0.0979
6.735,0.0453
6.7375,0.0183
6.74,0.103
6.7425,0.136
6.745,0.0756
6.7475,0.0798
6.75,0.0569
6.7525,0.0806
6.755,0.0833
6.7575,0.111
6.76,0.123
6.7625,0.0535
6.765,0.0937
6.7675,-0.0782
6.77,0.0927
6.7725,0.845
6.775,1.07
6.7775,-0.555
6.78,-0.387
6.7825,-0.184
6.785,-0.24
6.7875,0.0029
6.79,0.88
6.7925,0.498
6.795,-0.442
6.7975,-0.325
6.8,1.07
6.8025,0.256
6.805,-0.826
6.8075,0.619
6.81,-0.593
6.8125,1.08
6.815,0.746
6.8175,-0.6
6.82,0.0879
6.8225,-0.0908
6.825,-0.154
6.8275,0.207
6.83,-0.0381
6.8325,0.259
6.835,-0.145
6.8375,-0.83
6.84,0.985
6.8425,-0.105
6.845,0.94
6.8475,-0.367
6.85,-0.881
6.8525,-0.683
6.855,0.124
6.8575,1.07
6.86,-0.289
6.8625,-0.646
6.865,-0.717
6.8675,-0.168
6.87,0.291
6.8725,-0.306
6.875,-0.666
6.8775,-0.815
6.88,-0.55
6.8825,-0.643
6.885,0.964
6.8875,0.286
6.89,0.448
6.8925,-0.345
6.895,0.742
6.8975,0.0907
6.9,-0.218
6.9025,0.274
6.905,0.505
6.9075,0.385
6.91,-0.713
6.9125,0.978
6.915,0.627
6.9175,-0.499
6.92,-0.002
6.9225,0.985
6.925,0.672
6.9275,0.481
6.93,-0.495
6.9325,0.448
6.935,1.04
6.9375,0.583
6.94,-0.442
6.9425,0.963
6.945,0.516
6.9475,0.233
6.95,-0.214
6.9525,-0.103
6.955,0.679
6.9575,0.448
6.96,-0.76
6.9625,0.524
6.965,0.667
6.9675,-1.05
6.97,0.107
6.9725,-0.0465
6.975,0.317
6.9775,0.192
6.98,0.202
6.9825,-0.475
6.985,-0.695
6.9875,-0.0352
6.99,-0.789
6.9925,0.74
6.995,0.295
6.9975,0.513
7,-0.07
7.0025,1.22
7.005,-0.759
7.0075,-0.899
7.01,0.753
7.0125,0.358
7.015,-0.385
7.0175,1.08
7.02,-0.171
7.0225,0.339
7.025,0.383
7.0275,0.565
7.03,-0.864
7.0325,0.221
7.035,-0.0936
7.0375,0.42
7.04,0.208
7.0425,-0.672
7.045,-0.63
7.0475,0.421
7.05,0.727
7.0525,0.919
7.055,-0.712
7.0575,0.493
7.06,-0.693
7.0625,-0.514
7.065,0.956
7.0675,-0.457
7.07,-0.802
7.0725,-0.583
7.075,0.222
7.0775,0.194
7.08,0.522
7.0825,0.0784
7.085,0.0358
7.0875,0.861
7.09,0.819
7.0925,0.722
7.095,-0.0668
7.0975,-0.918
7.1,-0.466
7.1025,0.882
7.105,-0.182
7.1075,0.836
7.11,0.831
7.1125,-0.305
7.115,-0.293
7.1175,-0.554
7.12,0.147
7.1225,0.807
7.125,0.498
7.1275,-0.634
7.13,0.0108
7.1325,-0.215
7.135,0.566
7.1375,0.83
7.14,0.884
7.1425,-0.61
7.145,-0.639
7.1475,-0.168
7.15,-0.551
7.1525,-0.362
7.155,-0.0795
7.1575,0.55
7.16,-0.562
7.1625,-0.855
7.165,-0.676
7.1675,0.22
7.17,-0.943
7.1725,0.0768
7.175,0.11
7.1775,-0.863
7.18,-0.742
7.1825,0.671
7.185,0.261
7.1875,-0.527
7.19,-0.136
7.1925,-0.582
7.195,-0.628
7.1975,0.719
7.2,0.993
7.2025,0.814
7.205,0.288
7.2075,-0.371
7.21,-0.114
7.2125,0.0307
7.215,-0.43
7.2175,-0.259
7.22,-0.0651
7.2225,0.55
7.225,-0.0768
7.2275,-0.696
7.23,-0.819
7.2325,-0.581
7.235,-0.696
7.2375,-0.246
7.24,0.381
7.2425,0.093
7.245,0.634
7.2475,-0.145
7.25,-0.403
7.2525,0.197
7.255,-0.291
7.2575,0.133
7.26,0.697
7.2625,-0.475
7.265,0.249
7.2675,0.379
7.27,0.0981
7.2725,0.488
7.275,0.187
7.2775,0.799
7.28,0.401
7.2825,-0.0731
7.285,0.109
7.2875,-0.598
7.29,0.203
7.2925,0.59
7.295,-0.0885
7.2975,0.176
7.3,-0.137
7.3025,0.137
7.305,0.153
7.3075,1.02
7.31,1.05
7.3125,0.513
7.315,-0.58
7.3175,-0.666
7.32,0.0858
7.3225,-0.802
7.325,-0.424
7.3275,-0.934
7.33,-0.893
7.3325,-0.99
7.335,0.403
7.3375,0.463
7.34,0.376
7.3425,-0.435
7.345,-0.792
7.3475,0.959
7.35,0.137
7.3525,-0.0751
7.355,1.12
7.3575,0.0781
7.36,-0.891
7.3625,-0.397
7.365,0.257
7.3675,0.751
7.37,-0.0181
7.3725,-0.853
7.375,0.507
7.3775,0.0138
7.38,-0.129
7.3825,-0.656
7.385,-0.373
7.3875,0.226
7.39,0.584
7.3925,0.308
7.395,-0.267
7.3975,0.233
7.4,-0.465
7.4025,-0.012
7.405,0
7.4075,-0.164
7.41,0.0399
7.4125,0.0794
7.415,0.101
7.4175,0.0898
7.42,0.0965
7.4225,0.12
7.425,0.113
7.4275,0.0697
7.43,0.0346
7.4325,0.0726
7.435,0.0407
7.4375,0.0587
7.44,0.0776
7.4425,0.0579
7.445,0.107
7.4475,0.0913
7.45,0.0907
7.4525,0.117
7.455,0.0612
7.4575,0.121
7.46,0.065
7.4625,0.0662
7.465,0.0919
7.4675,0.118
7.47,0.0437
7.4725,0.0706
7.475,0.102
7.4775,0.101
7.48,0.0853
7.4825,0.0719
7.485,0.0762
7.4875,0.113
7.49,0.0654
7.4925,0.0445
7.495,0.0817
7.4975,0.0601
7.5,0.0862
7.5025,0.0501
7.505,0.0931
7.5075,0.0547
7.51,0.0494
7.5125,0.0507
7.515,0.0763
7.5175,0.103
7.52,0.0751
7.5225,0.0732
7.525,0.0248
7.5275,0.113
7.53,0.0548
7.5325,0.113
7.535,0.0368
7.5375,0.055
7.54,0.0934
7.5425,0.084
7.545,0.131
7.5475,0.0679
7.55,0.0737
7.5525,0.0599
7.555,0.036
7.5575,0.0895
7.56,0.0616
7.5625,0.0611
7.565,0.0764
7.5675,0.0738
7.57,0.0645
7.5725,0.11
7.575,0.0835
7.5775,0.0492
7.58,0.135
7.5825,0.11
7.585,0.0794
7.5875,0.126
7.59,0.078
7.5925,0.0716
7.595,0.0325
7.5975,0.0587
7.6,0.0437
7.6025,0.0718
7.605,0.0719
7.6075,0.0717
7.61,0.0511
7.6125,0.107
7.615,0.0989
7.6175,0.0753
7.62,0.0296
7.6225,0.0623
7.625,0.0799
7.6275,0.0473
7.63,0.082
7.6325,0.0393
7.635,0.0549
7.6375,0.0734
7.64,0.0925
7.6425,0.11
7.645,0.111
7.6475,0.0904
7.65,0.0449
7.6525,0.0356
7.655,0.0992
7.6575,0.0781
7.66,0.0374
7.6625,0.0815
7.665,0.06
7.6675,0.125
7.67,0.07
7.6725,0.0981
7.675,0.0412
7.6775,0.0505
7.68,0.0983
7.6825,0.0366
7.685,0.0617
7.6875,0.0342
7.69,0.0942
7.6925,0.0705
7.695,0.106
7.6975,0.105
7.7,0.132
7.7025,0.0501
7.705,0.117
7.7075,0.1
7.71,0.0572
7.7125,0.0496
7.715,0.0799
7.7175,0.0377
7.72,0.124
7.7225,0.113
7.725,0.0471
7.7275,0.0648
7.73,0.0779
7.7325,0.0952
7.735,0.0671
7.7375,0.0913
7.74,0.0489
7.7425,0.0648
7.745,0.0353
7.7475,0.088
7.75,0.032
7.7525,0.0734
7.755,0.0577
7.7575,0.0345
7.76,0.0517
7.7625,0.0641
7.765,0.119
7.7675,0.067
7.77,0.0933
7.7725,0.158
7.775,0.701
7.7775,0.731
7.78,-0.143
7.7825,0.842
7.785,0.719
7.7875,0.963
7.79,0.757
7.7925,-0.718
7.795,-0.898
7.7975,-0.36
7.8,0.113
7.8025,-0.0218
7.805,-0.431
7.8075,0.829
7.81,-0.187
7.8125,1.04
7.815,0.546
7.8175,-0.339
7.82,-1.08
7.8225,0.443
7.825,-0.363
7.8275,0.372
7.83,0.46
7.8325,0.298
7.835,-0.573
7.8375,-0.577
7.84,0.986
7.8425,0.492
7.845,-0.543
7.8475,-0.734
7.85,0.438
7.8525,0.494
7.855,-0.0003
7.8575,-0.331
7.86,-0.411
7.8625,0.425
7.865,0.0834
7.8675,0.41
7.87,0.755
7.8725,0.67
7.875,-0.71
7.8775,0.548
7.88,0.448
7.8825,0.758
7.885,0.3
7.8875,0.602
7.89,0.614
7.8925,0.291
7.895,-0.787
7.8975,-0.821
7.9,0.777
7.9025,-1.03
7.905,0.555
7.9075,0.565
7.91,0.802
7.9125,0.636
7.915,-0.775
7.9175,0.378
7.92,-0.0891
7.9225,-0.87
7.925,0.0366
7.9275,0.747
7.93,0.493
7.9325,0.65
7.935,-0.849
7.9375,-0.198
7.94,-0.103
7.9425,-1.01
7.945,0.211
7.9475,0.578
7.95,-0.532
7.9525,0.307
7.955,-0.537
7.9575,-0.582
7.96,-0.205
7.9625,-0.648
7.965,-0.22
7.9675,0.39
7.97,0.505
7.9725,0.905
7.975,0.362
7.9775,-0.859
7.98,-0.398
7.9825,0.407
7.985,0.563
7.9875,0.758
7.99,-0.987
7.9925,0.811
7.995,-0.316
7.9975,0.933
8,0.0441
8.0025,-0.38
8.005,0.223
8.0075,0.195
8.01,0.851
8.0125,-0.497
8.015,-0.0809
8.0175,0.549
8.02,0.0096
8.0225,-0.215
8.025,0.0905
8.0275,-0.428
8.03,-0.57
8.0325,-0.0068
8.035,0.785
8.0375,-0.712
8.04,-0.961
8.0425,-0.154
8.045,1.4
8.0475,0.396
8.05,0.159
8.0525,-0.174
8.055,1
8.0575,0.821
8.06,0.962
8.0625,0.728
8.065,0.777
8.0675,0.128
8.07,1.07
8.0725,-0.0049
8.075,0.714
8.0775,0.503
8.08,-0.017
8.0825,-0.893
8.085,0.439
8.0875,-0.24
8.09,0.451
8.0925,0.516
8.095,-0.654
8.0975,0.226
8.1,0.593
8.1025,-0.572
8.105,-0.324
8.1075,-0.277
8.11,-0.371
8.1125,-0.31
8.115,-0.135
8.1175,-0.227
8.12,-0.175
8.1225,0.23
8.125,0.791
8.1275,0.534
8.13,-0.0099
8.1325,-0.339
8.135,-0.0658
8.1375,-0.0062
8.14,0.924
8.1425,0.0678
8.145,-0.353
8.1475,0.117
8.15,0.248
8.1525,-0.983
8.155,-0.473
8.1575,-0.647
8.16,-0.753
8.1625,-0.434
8.165,0.185
8.1675,1.03
8.17,0.288
8.1725,-0.0783
8.175,-0.228
8.1775,-0.0735
8.18,-0.446
8.1825,0.702
8.185,0.201
8.1875,0.764
8.19,-0.351
8.1925,0.787
8.195,-0.0872
8.1975,0.294
8.2,0.447
8.2025,0.154
8.205,0.361
8.2075,-0.299
8.21,0.389
8.2125,0.845
8.215,-0.571
8.2175,-0.172
8.22,0.861
8.2225,-0.333
8.225,0.0458
8.2275,-0.135
8.23,-0.671
8.2325,0.964
8.235,-0.551
8.2375,-0.834
8.24,0.25
8.2425,-0.0597
8.245,-0.527
8.2475,0.563
8.25,0.184
8.2525,-0.205
8.255,-0.846
8.2575,0.769
8.26,0.288
8.2625,-0.695
8.265,-0.163
8.2675,0.88
8.27,0.419
8.2725,-0.761
8.275,0.362
8.2775,-0.55
8.28,0.354
8.2825,0.0178
8.285,-0.228
8.2875,-0.358
8.29,-0.596
8.2925,0.542
8.295,1.01
8.2975,-0.135
8.3,0.636
8.3025,0.508
8.305,0.682
8.3075,0.634
8.31,0.417
8.3125,-0.0057
8.315,-0.711
8.3175,-0.243
8.32,0.843
8.3225,0.733
8.325,-0.515
8.3275,-0.544
8.33,0.894
8.3325,0.716
8.335,-0.197
8.3375,0.616
8.34,-0.168
8.3425,0.755
8.345,-0.523
8.3475,-0.546
8.35,-0.942
8.3525,-0.466
8.355,-0.525
8.3575,0.198
8.36,0.57
8.3625,-0.262
8.365,0.195
8.3675,0.0626
8.37,0.238
8.3725,-0.344
8.375,-0.787
8.3775,0.672
8.38,-0.38
8.3825,0.0928
8.385,0.606
8.3875,-0.0808
8.39,-0.127
8.3925,-0.114
8.395,0.616
8.3975,0.892
8.4,0.665
8.4025,0.0405
8.405,0.149
8.4075,-0.522
8.41,0.436
8.4125,-0.54
8.415,0.125
8.4175,0.0904
8.42,0.139
8.4225,0.0937
8.425,0.088
8.4275,0.115
8.43,0.0438
8.4325,0.0754
8.435,0.135
8.4375,0.0623
8.44,0.0574
8.4425,0.0663
8.445,0.0784
8.4475,0.0746
8.45,0.104
8.4525,0.0352
8.455,0.0793
8.4575,0.0177
8.46,0.0767
8.4625,0.128
8.465,0.0555
8.4675,0.0632
8.47,0.0504
8.4725,0.0659
8.475,0.0816
8.4775,0.0472
8.48,0.0915
8.4825,0.123
8.485,0.0732
8.4875,0.0853
8.49,0.0948
8.4925,0.0318
8.495,0.0689
8.4975,0.0475
8.5,0.0594
8.5025,0.0426
8.505,0.0884
8.5075,0.106
8.51,0.0875
8.5125,0.0702
8.515,0.0593
8.5175,0.0887
8.52,0.0702
8.5225,0.0722
8.525,0.055
8.5275,0.0492
8.53,0.03
8.5325,0.0431
8.535,0.141
8.5375,0.0282
8.54,0.124
8.5425,0.0734
8.545,0.0833
8.5475,0.0533
8.55,0.116
8.5525,0.121
8.555,0.112
8.5575,0.0915
8.56,0.0939
8.5625,0.0372
8.565,0.0516
8.5675,0.0936
8.57,0.117
8.5725,0.0512
8.575,0.0549
8.5775,0.0831
8.58,0.0768
8.5825,0.113
8.585,0.068
8.5875,0.078
8.59,0.0551
8.5925,0.063
8.595,0.0563
8.5975,0.0643
8.6,0.0241
8.6025,0.0519
8.605,0.0208
8.6075,0.101
8.61,0.0419
8.6125,0.0922
8.615,0.0757
8.6175,0.0705
8.62,0.0641
8.6225,0.0661
8.625,0.107
8.6275,0.0587
8.63,0.0423
8.6325,0.0864
8.635,0.0906
8.6375,0.0736
8.64,0.0588
8.6425,0.089
8.645,0.0655
8.6475,0.0851
8.65,0.0548
8.6525,0.0769
8.655,0.0376
8.6575,0.0803
8.66,0.0887
8.6625,0.0481
8.665,0.103
8.6675,0.0635
8.67,0.118
8.6725,0.0855
8.675,0.0766
8.6775,0.107
8.68,0.106
8.6825,0.063
8.685,0.092
8.6875,0.0862
8.69,0.0295
8.6925,0.131
8.695,0.0467
8.6975,0.0807
8.7,0.0484
8.7025,0.0387
8.705,0.106
8.7075,0.0548
8.71,0.08
8.7125,0.067
8.715,0.0347
8.7175,0.127
8.72,0.08
8.7225,0.0897
8.725,0.115
8.7275,0.108
8.73,0.0927
8.7325,0.0603
8.735,0.0691
8.7375,0.0829
8.74,0.06
8.7425,0.108
8.745,0.0403
8.7475,0.0557
8.75,0.108
8.7525,0.0894
8.755,0.114
8.7575,0.106
8.76,0.0353
8.7625,0.0422
8.765,0.0951
8.7675,0.0906
8.77,0.0803
8.7725,0.0684
8.775,0.0938
8.7775,0.0676
8.78,0.786
8.7825,0.0719
8.785,-0.375
8.7875,-0.399
8.79,0.171
8.7925,0.494
8.795,-0.328
8.7975,0.336
8.8,1.05
8.8025,-0.628
8.805,0.282
8.8075,0.804
8.81,-0.609
8.8125,0.309
8.815,-0.129
8.8175,-0.6
8.82,-0.409
8.8225,-0.594
8.825,-0.413
8.8275,-0.463
8.83,-0.788
8.8325,0.257
8.835,0.834
8.8375,-0.107
8.84,0.565
8.8425,0.298
8.845,0.787
8.8475,0.447
8.85,-0.525
8.8525,-0.647
8.855,0.843
8.8575,-0.0505
8.86,-0.566
8.8625,-0.945
8.865,1
8.8675,0.0138
8.87,0.196
8.8725,-0.161
8.875,-0.47
8.8775,-0.788
8.88,0.0063
8.8825,-0.213
8.885,0.567
8.8875,0.386
8.89,-0.182
8.8925,0.559
8.895,-0.723
8.8975,0.97
8.9,0.0621
8.9025,0.0002
8.905,0.834
8.9075,-0.716
8.91,0.974
8.9125,0.726
8.915,0.518
8.9175,-0.0945
8.92,0.546
8.9225,-0.489
8.925,-0.529
8.9275,1.07
8.93,0.719
8.9325,0.61
8.935,0.788
8.9375,0.399
8.94,0.533
8.9425,0.106
8.945,0.457
8.9475,0.0301
8.95,0.0474
8.9525,-0.0076
8.955,0.283
8.9575,-0.847
8.96,-0.853
8.9625,-0.225
8.965,-0.234
8.9675,-1.02
8.97,-0.475
8.9725,-0.314
8.975,-0.131
8.9775,0.443
8.98,0.611
8.9825,-0.119
8.985,0.212
8.9875,0.682
8.99,-0.425
8.9925,-0.587
8.995,-0.591
8.9975,-0.905
9,0.436
9.0025,-0.544
9.005,0.942
9.0075,-0.749
9.01,-0.0703
9.0125,-0.917
9.015,0.552
9.0175,-0.0625
9.02,0.581
9.0225,0.735
9.025,0.129
9.0275,0.514
9.03,-0.396
9.0325,-0.766
9.035,-0.438
9.0375,0.504
9.04,1.05
9.0425,0.0605
9.045,0.0241
9.0475,-0.401
9.05,-0.502
9.0525,0.26
9.055,1.14
9.0575,-0.286
9.06,-0.486
9.0625,0.62
9.065,-0.575
9.0675,1.03
9.07,-0.621
9.0725,-0.189
9.075,0.176
9.0775,-0.662
9.08,0.325
9.0825,0.617
9.085,-0.302
9.0875,0.526
9.09,0.0577
9.0925,-0.408
9.095,0.0995
9.0975,1.12
9.1,0.178
9.1025,0.537
9.105,-0.414
9.1075,0.149
9.11,0.376
9.1125,-0.657
9.115,-0.629
9.1175,1.17
9.12,-0.845
9.1225,-0.634
9.125,0.576
9.1275,-0.0506
9.13,-0.682
9.1325,1.25
9.135,-0.179
9.1375,0.75
9.14,-0.0921
9.1425,0.892
9.145,-0.312
9.1475,1.03
9.15,-0.687
9.1525,0.173
9.155,-0.24
9.1575,0.32
9.16,0.155
9.1625,-0.073
9.165,-0.755
9.1675,0.041
9.17,-1.07
9.1725,-0.689
9.175,-0.296
9.1775,0.902
9.18,0.191
9.1825,0.63
9.185,0.437
9.1875,0.855
9.19,0.788
9.1925,0.844
9.195,-0.482
9.1975,0.619
9.2,-0.501
9.2025,-0.481
9.205,-0.698
9.2075,0.288
9.21,0.501
9.2125,-0.921
9.215,0.0158
9.2175,-0.907
9.22,-0.1
9.2225,0.349
9.225,-0.278
9.2275,1.02
9.23,0.763
9.2325,-0.509
9.235,-0.0984
9.2375,0.795
9.24,0.929
9.2425,-0.153
9.245,-0.309
9.2475,-0.438
9.25,0.93
9.2525,-0.172
9.255,0.337
9.2575,0.59
9.26,-0.217
9.2625,-0.26
9.265,-0.729
9.2675,-0.612
9.27,-0.312
9.2725,0.0661
9.275,-0.249
9.2775,-0.612
9.28,0.669
9.2825,-0.521
9.285,1.01
9.2875,0.351
9.29,-0.17
9.2925,1.12
9.295,-0.105
9.2975,-0.273
9.3,0.457
9.3025,-0.834
9.305,0.357
9.3075,0.5
9.31,-0.0295
9.3125,-0.204
9.315,0.226
9.3175,0.829
9.32,0.387
9.3225,0.0514
9.325,0.449
9.3275,-0.831
9.33,-0.267
9.3325,0.229
9.335,-0.226
9.3375,-0.0635
9.34,-0.479
9.3425,0.667
9.345,0.408
9.3475,0.927
9.35,0.632
9.3525,-0.137
9.355,-0.305
9.3575,-0.0501
9.36,-0.28
9.3625,0.459
9.365,0.545
9.3675,-0.337
9.37,-0.503
9.3725,0.889
9.375,-0.239
9.3775,-0.176
9.38,-0.994
9.3825,0.7
9.385,0.029
9.3875,0.491
9.39,0.517
9.3925,0.607
9.395,0.749
9.3975,0.232
9.4,-0.531
9.4025,-0.739
9.405,0.951
9.4075,0.692
9.41,-0.873
9.4125,-0.534
9.415,-0.666
9.4175,-0.397
9.42,0.106
9.4225,0.11
9.425,0.0577
9.4275,0.0387
9.43,0.068
9.4325,0.0522
9.435,0.103
9.4375,0.109
9.44,0.0489
9.4425,0.0479
9.445,0.0734
9.4475,0.111
9.45,0.0552
9.4525,0.0681
9.455,0.102
9.4575,0.0743
9.46,0.113
9.4625,0.0455
9.465,0.0662
9.4675,0.0956
9.47,0.0969
9.4725,0.0696
9.475,0.0211
9.4775,0.0306
9.48,0.0321
9.4825,0.0442
9.485,0.0717
9.4875,0.059
9.49,0.0801
9.4925,0.0856
9.495,0.062
9.4975,0.0806
9.5,0.0868
9.5025,0.103
9.505,0.0622
9.5075,0.102
9.51,0.0815
9.5125,0.0438
9.515,0.0816
9.5175,0.063
9.52,0.0507
9.5225,0.0702
9.525,0.0303
9.5275,0.119
9.53,0.0603
9.5325,0.0622
9.535,0.112
9.5375,0.0773
9.54,0.0936
9.5425,0.0243
9.545,0.117
9.5475,0.0262
9.55,0.0385
9.5525,0.0531
9.555,0.088
9.5575,0.0847
9.56,0.0485
9.5625,0.0687
9.565,0.0994
9.5675,0.0442
9.57,0.0806
9.5725,0.0418
9.575,0.12
9.5775,0.0833
9.58,0.048
9.5825,0.101
9.585,0.0945
9.5875,0.114
9.59,0.0265
9.5925,0.1
9.595,0.109
9.5975,0.0699
9.6,0.0478
9.6025,0.0886
9.605,0.101
9.6075,0.0779
9.61,0.0815
9.6125,0.0799
9.615,0.104
9.6175,0.0495
9.62,0.0457
9.6225,0.0998
9.625,0.0336
9.6275,0.122
9.63,0.0989
9.6325,0.0386
9.635,0.0627
9.6375,0.085
9.64,0.0697
9.6425,0.0864
9.645,0.1
9.6475,0.0682
9.65,0.114
9.6525,0.0754
9.655,0.0519
9.6575,0.117
9.66,0.141
9.6625,0.0925
9.665,0.0648
9.6675,0.105
9.67,0.082
9.6725,0.0993
9.675,0.092
9.6775,0.0432
9.68,0.0974
9.6825,0.0401
9.685,0.071
9.6875,0.0985
9.69,0.123
9.6925,0.0837
9.695,0.0587
9.6975,0.0468
9.7,0.0456
9.7025,0.106
9.705,0.128
9.7075,0.0664
9.71,0.0704
9.7125,0.0796
9.715,0.0672
9.7175,0.0342
9.72,0.119
9.7225,0.117
9.725,0.0607
9.7275,0.0717
9.73,0.0326
9.7325,0.0765
9.735,0.0395
9.7375,0.109
9.74,0.0755
9.7425,0.0931
9.745,0.0977
9.7475,0.0572
9.75,0.0571
9.7525,0.0586
9.755,0.0855
9.7575,0.0371
9.76,0.0656
9.7625,0.112
9.765,0.033
9.7675,0.112
9.77,0.0937
9.7725,0.0737
9.775,0.0847
9.7775,0.0889
9.78,0.0579
9.7825,0.138
9.785,0.569
9.7875,0.769
9.79,-0.759
9.7925,-0.276
9.795,0.226
9.7975,-0.332
9.8,-0.624
9.8025,0.496
9.805,0.189
9.8075,0.368
9.81,-0.375
9.8125,0.573
9.815,-0.114
9.8175,-0.344
9.82,0.506
9.8225,0.206
9.825,0.384
9.8275,0.39
9.83,0.0716
9.8325,1.01
9.835,0.997
9.8375,0.373
9.84,-0.855
9.8425,1
9.845,0.2
9.8475,-0.121
9.85,0.271
9.8525,-0.396
9.855,-0.123
9.8575,0.0428
9.86,-0.378
9.8625,-0.733
9.865,0.312
9.8675,0.696
9.87,-0.53
9.8725,0.269
9.875,0.46
9.8775,0.599
9.88,0.219
9.8825,-0.145
9.885,-0.406
9.8875,-0.903
9.89,0.348
9.8925,-0.12
9.895,-0.57
9.8975,0.836
9.9,-0.454
9.9025,0.203
9.905,0.905
9.9075,0.333
9.91,1.16
9.9125,0.229
9.915,0.426
9.9175,-0.007
9.92,-0.558
9.9225,-0.563
9.925,0.189
9.9275,-0.832
9.93,-0.515
9.9325,-0.0716
9.935,-0.679
9.9375,0.0927
9.94,0.583
9.9425,0.0408
9.945,-0.629
9.9475,-0.623
9.95,0.903
9.9525,-0.942
9.955,0.218
9.9575,-0.973
9.96,0.793
9.9625,0.171
9.965,1
9.9675,0.093
9.97,-0.531
9.9725,0.925
9.975,-0.208
9.9775,0.321
9.98,-0.0994
9.9825,0.412
9.985,-0.836
9.9875,-0.161
9.99,-0.286
9.9925,0.617
9.995,0.491
9.9975,-0.361
10,0.571
10.0025,0.26
10.005,0.543
10.0075,-0.404
10.01,0.46
10.0125,0.122
10.015,0.111
10.0175,0.958
10.02,-0.208
10.0225,-0.358
10.025,0.519
10.0275,-0.193
10.03,-0.903
10.0325,-0.777
10.035,1.1
10.0375,0.787
10.04,-0.166
10.0425,-0.0851
10.045,0.67
10.0475,-0.817
10.05,0.0842
10.0525,-0.825
10.055,-0.849
10.0575,0.27
10.06,0.962
10.0625,0.139
10.065,1.11
10.0675,0.223
10.07,0.659
10.0725,0.208
10.075,0.761
10.0775,0.476
10.08,0.387
10.0825,0.0213
10.085,-1
10.0875,0.746
10.09,0.0102
10.0925,-0.196
10.095,0.136
10.0975,-0.313
10.1,0.803
10.1025,0.538
10.105,0.846
10.1075,0.319
10.11,-0.719
10.1125,0.838
10.115,-0.325
10.1175,-0.131
10.12,-0.775
10.1225,0.676
10.125,-0.412
10.1275,-0.388
10.13,-0.255
10.1325,0.75
10.135,-0.306
10.1375,0.121
10.14,-0.267
10.1425,-0.304
10.145,-0.0184
10.1475,0.522
10.15,0.45
10.1525,-0.431
10.155,-0.0397
10.1575,0.793
10.16,0.579
10.1625,-0.533
10.165,0.409
10.1675,0.373
10.17,-0.5
10.1725,0.0825
10.175,-0.28
10.1775,-0.566
10.18,0.25
10.1825,-0.189
10.185,-0.829
10.1875,0.572
10.19,-0.752
10.1925,-0.464
10.195,0.321
10.1975,-0.264
10.2,1.02
10.2025,-0.893
10.205,0.136
10.2075,-0.0745
10.21,0.0681
10.2125,0.0135
10.215,-0.683
10.2175,-0.257
10.22,-0.562
10.2225,0.252
10.225,-1.08
10.2275,0.1
10.23,0.923
10.2325,0.536
10.235,0.945
10.2375,-0.153
10.24,0.471
10.2425,-0.24
10.245,-0.348
10.2475,-0.494
10.25,-0.734
10.2525,0.562
10.255,0.261
10.2575,0.457
10.26,-0.99
10.2625,-0.193
10.265,0.789
10.2675,-0.541
10.27,0.778
10.2725,-0.339
10.275,0.127
10.2775,0.854
10.28,0.662
10.2825,0.722
10.285,-0.467
10.2875,0.383
10.29,-0.723
10.2925,-0.859
10.295,-0.589
10.2975,0.732
10.3,0.227
10.3025,0.141
10.305,-0.169
10.3075,0.906
10.31,0.244
10.3125,-0.55
10.315,-0.587
10.3175,-0.152
10.32,-0.691
10.3225,-0.862
10.325,0.193
10.3275,-0.585
10.33,0.879
10.3325,0.136
10.335,0.535
10.3375,-0.563
10.34,0.0379
10.3425,-0.303
10.345,-0.518
10.3475,0.0748
10.35,0.731
10.3525,0.377
10.355,0.386
10.3575,-0.326
10.36,0.463
10.3625,-0.0028
10.365,-0.188
10.3675,-0.557
10.37,-0.0972
10.3725,0.719
10.375,-0.4
10.3775,0.406
10.38,-0.295
10.3825,0.073
10.385,-0.303
10.3875,-0.558
10.39,0.584
10.3925,-0.497
10.395,-0.171
10.3975,-0.871
10.4,-0.836
10.4025,-0.226
10.405,0.912
10.4075,-0.289
10.41,-0.511
10.4125,0.0295
10.415,0.0776
10.4175,0.409
10.42,-0.744
10.4225,-0.0355
10.425,0.106
10.4275,0.0654
10.43,0.0498
10.4325,0.111
10.435,0.0656
10.4375,0.0298
10.44,0.0726
10.4425,0.0579
10.445,0.115
10.4475,0.0441
10.45,0.0312
10.4525,0.116
10.455,0.0945
10.4575,0.12
10.46,0.102
10.4625,0.124
10.465,0.052
10.4675,0.0614
10.47,0.0584
10.4725,0.0753
10.475,0.073
10.4775,0.122
10.48,0.0843
10.4825,0.0719
10.485,0.0761
10.4875,0.121
10.49,0.0844
10.4925,0.0538
10.495,0.121
10.4975,0.133
10.5,0.0944
10.5025,0.0475
10.505,0.0736
10.5075,0.0406
10.51,0.114
10.5125,0.0659
10.515,0.0264
10.5175,0.05
10.52,0.137
10.5225,0.0521
10.525,0.0641
10.5275,0.0989
10.53,0.1
10.5325,0.083
10.535,0.068
10.5375,0.117
10.54,0.0693
10.5425,0.031
10.545,0.0522
10.5475,0.0707
10.55,0.0346
10.5525,0.11
10.555,0.0447
10.5575,0.0887
10.56,0.139
10.5625,0.0811
10.565,0.0298
10.5675,0.121
10.57,0.114
10.5725,0.105
10.575,0.0971
10.5775,0.0835
10.58,0.121
10.5825,0.0208
10.585,0.0732
10.5875,0.12
10.59,0.114
10.5925,0.0721
10.595,0.0564
10.5975,0.0967
10.6,0.132
10.6025,0.111
10.605,0.126
10.6075,0.0792
10.61,0.119
10.6125,0.0601
10.615,0.116
10.6175,0.102
10.62,0.117
10.6225,0.112
10.625,0.0757
10.6275,0.127
10.63,0.0702
10.6325,0.105
10.635,0.0132
10.6375,0.0487
10.64,0.0392
10.6425,0.0772
10.645,0.0812
10.6475,0.0593
10.65,0.0771
10.6525,0.0982
10.655,0.0714
10.6575,0.0806
10.66,0.0594
10.6625,0.0788
10.665,0.0833
10.6675,0.0823
10.67,0.0512
10.6725,0.0703
10.675,0.0414
10.6775,0.0357
10.68,0.0766
10.6825,0.0488
10.685,0.0869
10.6875,0.107
10.69,0.0911
10.6925,0.0576
10.695,0.0735
10.6975,0.0566
10.7,0.132
10.7025,0.0956
10.705,0.0566
10.7075,0.0503
10.71,0.0863
10.7125,0.0867
10.715,0.0512
10.7175,0.0724
10.72,0.0347
10.7225,0.103
10.725,0.114
10.7275,0.0339
10.73,0.0777
10.7325,0.136
10.735,0.055
10.7375,0.108
10.74,0.06
10.7425,0.118
10.745,0.0791
10.7475,0.111
10.75,0.0877
10.7525,0.0948
10.755,0.0693
10.7575,0.12
10.76,0.0293
10.7625,0.104
10.765,0.0733
10.7675,0.0663
10.77,0.114
10.7725,0.0685
10.775,0.091
10.7775,0.0787
10.78,0.0746
10.7825,0.0565
10.785,0.103
10.7875,0.0488
10.79,0.405
10.7925,-0.535
10.795,0.269
10.7975,0.365
10.8,0.893
10.8025,-0.0796
10.805,0.442
10.8075,0.381
10.81,-0.985
10.8125,1.3
10.815,0.598
10.8175,0.177
10.82,0.512
10.8225,0.427
10.825,-0.846
10.8275,1.07
10.83,-0.408
10.8325,0.878
10.835,0.185
10.8375,0.329
10.84,-0.0171
10.8425,0.644
10.845,-0.415
10.8475,0.565
10.85,-0.283
10.8525,-0.421
10.855,0.196
10.8575,1.11
10.86,0.15
10.8625,0.106
10.865,-0.69
10.8675,0.331
10.87,0.359
10.8725,-0.769
10.875,0.376
10.8775,-0.284
10.88,-0.663
10.8825,0.453
10.885,0.731
10.8875,0.0283
10.89,0.625
10.8925,-0.487
10.895,0.173
10.8975,-0.349
10.9,-0.182
10.9025,0.272
10.905,-0.0899
10.9075,-0.651
10.91,0.474
10.9125,0.15
10.915,-0.874
10.9175,0.792
10.92,0.162
10.9225,-0.222
10.925,0.378
10.9275,0.345
10.93,-0.474
10.9325,0.659
10.935,0.348
10.9375,0.31
10.94,-0.428
10.9425,-0.173
10.945,0.342
10.9475,-0.757
10.95,-0.6
10.9525,-0.472
10.955,-0.134
10.9575,-0.207
10.96,0.368
10.9625,0.373
10.965,0.276
10.9675,-0.647
10.97,-0.0072
10.9725,0.611
10.975,0.65
10.9775,0.59
10.98,-0.517
10.9825,1.1
10.985,-0.783
10.9875,0.664
10.99,0.655
10.9925,-0.617
10.995,0.819
10.9975,1.22
11,-0.125
11.0025,0.203
11.005,0.675
11.0075,-0.226
11.01,0.146
11.0125,0.74
11.015,-0.117
11.0175,-0.453
11.02,-0.863
11.0225,-0.457
11.025,-0.304
11.0275,-0.491
11.03,-0.152
11.0325,-0.0184
11.035,0.348
11.0375,-0.955
11.04,0.169
11.0425,0.837
11.045,-0.635
11.0475,-0.441
11.05,-0.0864
11.0525,-1.06
11.055,-0.0761
11.0575,-0.204
11.06,0.272
11.0625,-0.508
11.065,0.414
11.0675,-0.769
11.07,1.16
11.0725,-0.338
11.075,-0.233
11.0775,0.21
11.08,0.948
11.0825,-0.606
11.085,0.622
11.0875,-0.322
11.09,0.794
11.0925,-0.152
11.095,-0.205
11.0975,-0.0639
11.1,0.453
11.1025,0.461
11.105,0.438
11.1075,-0.334
11.11,0.264
11.1125,-0.016
11.115,0.62
11.1175,-0.704
11.12,0.154
11.1225,0.751
11.125,0.684
11.1275,0.47
11.13,-0.484
11.1325,-0.0001
11.135,-0.724
11.1375,-0.356
11.14,0.576
11.1425,-1.05
11.145,0.259
11.1475,1.08
11.15,-0.673
11.1525,-0.483
11.155,0.393
11.1575,-0.046
11.16,0.756
11.1625,0.801
11.165,-0.52
11.1675,0.0154
11.17,-0.0039
11.1725,-0.101
11.175,0.929
11.1775,0.909
11.18,-0.22
11.1825,-0.571
11.185,0.0153
11.1875,-0.104
11.19,0.104
11.1925,-0.149
11.195,0.458
11.1975,0.473
11.2,-0.298
11.2025,0.563
11.205,-0.311
11.2075,0.628
11.21,0.6
11.2125,0.195
11.215,0.761
11.2175,0.444
11.22,0.143
11.2225,-0.689
11.225,-0.441
11.2275,0.627
11.23,0.0189
11.2325,-0.259
11.235,0.302
11.2375,0.357
11.24,0.0714
11.2425,-0.138
11.245,-0.198
11.2475,-0.245
11.25,0.895
11.2525,-0.0825
11.255,0.816
11.2575,-0.854
11.26,-0.688
11.2625,0.146
11.265,0.459
11.2675,-0.7
11.27,-0.339
11.2725,1.03
11.275,0.141
11.2775,0.444
11.28,0.758
11.2825,-0.924
11.285,-0.195
11.2875,-0.353
11.29,0.0374
11.2925,0.359
11.295,-0.695
11.2975,-0.219
11.3,0.394
11.3025,-0.476
11.305,0.0325
11.3075,0.803
11.31,-0.0513
11.3125,0.701
11.315,-0.351
11.3175,-0.445
11.32,-0.0869
11.3225,-0.156
11.325,0.0097
11.3275,1.16
11.33,-0.538
11.3325,0.593
11.335,0.624
11.3375,-0.765
11.34,0.373
11.3425,-0.295
11.345,-0.174
11.3475,-0.634
11.35,0.37
11.3525,0.485
11.355,-0.783
11.3575,0.367
11.36,-0.81
11.3625,-0.702
11.365,0.822
11.3675,-0.596
11.37,0.0176
11.3725,0.533
11.375,0.22
11.3775,0.282
11.38,0.499
11.3825,-0.0692
11.385,-0.146
11.3875,0.059
11.39,0.529
11.3925,0.779
11.395,0.456
11.3975,0.3
11.4,0.125
11.4025,-0.026
11.405,-0.579
11.4075,-0.182
11.41,-0.174
11.4125,0.472
11.415,-0.511
11.4175,-0.264
11.42,-0.585
11.4225,0.553
11.425,0.307
11.4275,-0.803
11.43,0.0446
11.4325,0.0832
11.435,0.0732
11.4375,0.1
11.44,0.0608
11.4425,0.0436
11.445,0.0612
11.4475,0.0597
11.45,0.104
11.4525,0.0858
11.455,0.031
11.4575,0.0627
11.46,0.103
11.4625,0.103
11.465,0.114
11.4675,0.0378
11.47,0.0775
11.4725,0.0881
11.475,0.0911
11.4775,0.0888
11.48,0.0946
11.4825,0.111
11.485,0.076
11.4875,0.134
11.49,0.0848
11.4925,0.0808
11.495,0.109
11.4975,0.0709
11.5,0.108
11.5025,0.0412
11.505,0.0423
11.5075,0.0652
11.51,0.0983
11.5125,0.0556
11.515,0.0973
11.5175,0.0677
11.52,0.0483
11.5225,0.12
11.525,0.0904
11.5275,0.0885
11.53,0.0481
11.5325,0.0212
11.535,0.0883
11.5375,0.0679
11.54,0.0479
11.5425,0.111
11.545,0.108
11.5475,0.0563
11.55,0.0639
11.5525,0.0852
11.555,0.116
11.5575,0.119
11.56,0.0483
11.5625,0.0826
11.565,0.0495
11.5675,0.132
11.57,0.0678
11.5725,0.0993
11.575,0.0758
11.5775,0.0784
11.58,0.0872
11.5825,0.0926
11.585,0.0997
11.5875,0.0747
11.59,0.0524
11.5925,0.113
11.595,0.0737
11.5975,0.128
11.6,0.0765
11.6025,0.108
11.605,0.13
11.6075,0.0293
11.61,0.0739
11.6125,0.037
11.615,0.0896
11.6175,0.0781
11.62,0.0422
11.6225,0.129
11.625,0.118
11.6275,0.123
11.63,0.0537
11.6325,0.0401
11.635,0.054
11.6375,0.0531
11.64,0.107
11.6425,0.0602
11.645,0.0414
11.6475,0.0534
11.65,0.0886
11.6525,0.0713
11.655,0.101
11.6575,0.131
11.66,0.0393
11.6625,0.0776
11.665,0.0682
11.6675,0.093
11.67,0.0529
11.6725,0.0982
11.675,0.105
11.6775,0.111
11.68,0.0917
11.6825,0.0423
11.685,0.102
11.6875,0.112
11.69,0.0939
11.6925,0.0423
11.695,0.0591
11.6975,0.0932
11.7,0.0904
11.7025,0.144
11.705,0.105
11.7075,0.0615
11.71,0.0898
11.7125,0.107
11.715,0.0657
11.7175,0.0671
11.72,0.0493
11.7225,0.0893
11.725,0.107
11.7275,0.0786
11.73,0.0676
11.7325,0.0621
11.735,0.0692
11.7375,0.0953
11.74,0.0766
11.7425,0.05
11.745,0.0961
11.7475,0.0829
11.75,0.11
11.7525,0.0956
11.755,0.0473
11.7575,0.118
11.76,0.0542
11.7625,0.0645
11.765,0.0801
11.7675,0.0594
11.77,0.0735
11.7725,0.135
11.775,0.0407
11.7775,0.0618
11.78,0.101
11.7825,0.0548
11.785,0.0516
11.7875,0.0912
11.79,0.0867
11.7925,0.0891
11.795,-0.0596
11.7975,0.536
11.8,-0.0332
11.8025,0.45
11.805,-0.611
11.8075,0.816
11.81,0.523
11.8125,-0.794
11.815,0.147
11.8175,-0.244
11.82,0.842
11.8225,0.0851
11.825,0.155
11.8275,0.091
11.83,0.207
11.8325,0.0795
11.835,-0.0797
11.8375,0.0534
11.84,0.207
11.8425,0.973
11.845,-0.066
11.8475,0.537
11.85,0.675
11.8525,-0.842
11.855,-0.979
11.8575,-0.362
11.86,0.265
11.8625,-0.638
11.865,1.01
11.8675,0.497
11.87,-0.0217
11.8725,0.904
11.875,0.49
11.8775,0.506
11.88,-1.12
11.8825,-0.125
11.885,-0.161
11.8875,0.0508
11.89,0.152
11.8925,0.931
11.895,-0.591
11.8975,0.296
11.9,-0.686
11.9025,-0.669
11.905,-0.372
11.9075,1.01
11.91,0.438
11.9125,1.04
11.915,0.0168
11.9175,0.516
11.92,0.694
11.9225,-0.31
11.925,0.392
11.9275,0.0609
11.93,0.166
11.9325,0.0709
11.935,-0.778
11.9375,-0.557
11.94,0.609
11.9425,0.297
11.945,0.0327
11.9475,-0.837
11.95,-0.0112
11.9525,0.556
11.955,-0.213
11.9575,0.182
11.96,0.0301
11.9625,0.834
11.965,-0.2
11.9675,-0.47
11.97,0.662
11.9725,-0.208
11.975,0.136
11.9775,0.34
11.98,0.388
11.9825,-1.09
11.985,0.278
11.9875,-0.035
11.99,-0.0712
11.9925,1.05
11.995,1.02
11.9975,-0.238
12,-0.355
12.0025,-0.739
12.005,-0.122
12.0075,-0.632
12.01,0.119
12.0125,-0.278
12.015,0.243
12.0175,-0.24
12.02,0.777
12.0225,-0.23
12.025,0.0818
12.0275,0.464
12.03,-0.24
12.0325,-0.194
12.035,0.474
12.0375,0.103
12.04,-0.854
12.0425,0.483
12.045,-0.614
12.0475,0.461
12.05,-0.0084
12.0525,0.929
12.055,1.03
12.0575,0.501
12.06,-0.976
12.0625,-0.0243
12.065,0.625
12.0675,0.798
12.07,0.532
12.0725,-0.737
12.075,0.566
12.0775,-0.527
12.08,-0.517
12.0825,-0.636
12.085,-0.205
12.0875,-0.237
12.09,-0.0197
12.0925,-0.19
12.095,0.264
12.0975,-0.284
12.1,-0.169
12.1025,0.66
12.105,0.511
12.1075,0.284
12.11,0.337
12.1125,0.0691
12.115,0.313
12.1175,-0.0927
12.12,-0.475
12.1225,1.07
12.125,0.805
12.1275,0.603
12.13,0.0128
12.1325,-0.761
12.135,-0.648
12.1375,-0.694
12.14,0.0775
12.1425,0.773
12.145,-0.794
12.1475,-0.381
12.15,0.864
12.1525,-0.244
12.155,-0.624
12.1575,0.583
12.16,1.01
12.1625,0.432
12.165,1
12.1675,0.571
12.17,-0.331
12.1725,-0.169
12.175,0.682
12.1775,0.479
12.18,-0.418
12.1825,0.465
12.185,-0.0522
12.1875,-0.43
12.19,-0.375
12.1925,0.645
12.195,0.323
12.1975,-0.509
12.2,-0.618
12.2025,0.719
12.205,0.531
12.2075,0.221
12.21,0.293
12.2125,-0.504
12.215,0.389
12.2175,-0.43
12.22,0.206
12.2225,-0.436
12.225,0.108
12.2275,-0.451
12.23,-0.691
12.2325,-0.804
12.235,0.705
12.2375,-0.495
12.24,-0.299
12.2425,-0.225
12.245,-0.45
12.2475,-0.314
12.25,0.5
12.2525,-0.029
12.255,-0.722
12.2575,0.312
12.26,-0.664
12.2625,0.53
12.265,0.468
12.2675,-0.849
12.27,0.631
12.2725,0.437
12.275,-0.395
12.2775,1.08
12.28,-0.056
12.2825,1.12
12.285,0.207
12.2875,0.863
12.29,0.459
12.2925,-0.595
12.295,-0.0966
12.2975,0.798
12.3,-0.173
12.3025,1.1
12.305,0.139
12.3075,-0.431
12.31,-0.505
12.3125,0.195
12.315,0.514
12.3175,-0.619
12.32,0.767
12.3225,-0.494
12.325,-0.332
12.3275,0.584
12.33,0.723
12.3325,0.148
12.335,-0.04
12.3375,0.329
12.34,1.1
12.3425,0.512
12.345,0.286
12.3475,-0.0955
12.35,-0.412
12.3525,-0.522
12.355,-0.501
12.3575,0.0965
12.36,0.469
12.3625,0.504
12.365,0.493
12.3675,-0.111
12.37,1.02
12.3725,-0.646
12.375,-0.0252
12.3775,-0.237
12.38,0.189
12.3825,-0.303
12.385,0.14
12.3875,0.719
12.39,0.29
12.3925,0.889
12.395,-0.553
12.3975,-0.542
12.4,-0.256
12.4025,0.79
12.405,0.55
12.4075,-0.331
12.41,0.668
12.4125,0.334
12.415,1.06
12.4175,0.992
12.42,-1.04
12.4225,0.139
12.425,-0.608
12.4275,0.407
12.43,0.0207
12.4325,0.159
12.435,-0.165
12.4375,0.13
12.44,0.0541
12.4425,0.0259
12.445,0.034
12.4475,0.0376
12.45,0.0577
12.4525,0.0567
12.455,0.11
12.4575,0.0479
12.46,0.125
12.4625,0.0647
12.465,0.076
12.4675,0.137
12.47,0.0541
12.4725,0.11
12.475,0.0344
12.4775,0.0625
12.48,0.0778
12.4825,0.0524
12.485,0.0806
12.4875,0.0611
12.49,0.0538
12.4925,0.0455
12.495,0.0675
12.4975,0.0738
12.5,0.0427
12.5025,0.116
12.505,0.0734
12.5075,0.091
12.51,0.0869
12.5125,0.0329
12.515,0.099
12.5175,0.118
12.52,0.0825
12.5225,0.103
12.525,0.104
12.5275,0.054
12.53,0.0636
12.5325,0.0373
12.535,0.0661
12.5375,0.0588
12.54,0.0936
12.5425,0.0478
12.545,0.0327
12.5475,0.088
12.55,0.114
12.5525,0.0987
12.555,0.0355
12.5575,0.134
12.56,0.0464
12.5625,0.0544
12.565,0.0498
12.5675,0.0812
12.57,0.0517
12.5725,0.0826
12.575,0.086
12.5775,0.0712
12.58,0.0534
12.5825,0.115
12.585,0.0821
12.5875,0.0613
12.59,0.1
12.5925,0.0685
12.595,0.125
12.5975,0.0817
12.6,0.108
12.6025,0.0591
12.605,0.0798
12.6075,0.0795
12.61,0.107
12.6125,0.104
12.615,0.0754
12.6175,0.116
12.62,0.0958
12.6225,0.0647
12.625,0.118
12.6275,0.0775
12.63,0.0767
12.6325,0.0935
12.635,0.066
12.6375,0.121
12.64,0.102
12.6425,0.0855
12.645,0.0674
12.6475,0.0702
12.65,0.0774
12.6525,0.0712
12.655,0.0895
12.6575,0.0881
12.66,0.118
12.6625,0.0814
12.665,0.125
12.6675,0.0344
12.67,0.0619
12.6725,0.108
12.675,0.0537
12.6775,0.117
12.68,0.105
12.6825,0.0637
12.685,0.0872
12.6875,0.119
12.69,0.0853
12.6925,0.104
12.695,0.0316
12.6975,0.107
12.7,0.105
12.7025,0.0661
12.705,0.0794
12.7075,0.0785
12.71,0.0525
12.7125,0.071
12.715,0.113
12.7175,0.0386
12.72,0.0776
12.7225,0.0493
12.725,0.0991
12.7275,0.113
12.73,0.125
12.7325,0.057
12.735,0.0929
12.7375,0.0932
12.74,0.0442
12.7425,0.115
12.745,0.0723
12.7475,0.0683
12.75,0.028
12.7525,0.105
12.755,0.0553
12.7575,0.115
12.76,0.0487
12.7625,0.122
12.765,0.0296
12.7675,0.0548
12.77,0.0741
12.7725,0.0501
12.775,0.119
12.7775,0.121
12.78,0.0956
12.7825,0.088
12.785,0.0847
12.7875,0.101
12.79,0.0854
12.7925,0.104
12.795,0.0501
12.7975,0.0771
12.8,0.104
12.8025,0.0935
12.805,0.0329
12.8075,0.103
12.81,0.13
12.8125,0.0516
12.815,0.0473
12.8175,0.0418
12.82,0.0425
12.8225,0.0712
12.825,0.0543
12.8275,0.108
12.83,0.037
12.8325,0.0684
12.835,0.132
12.8375,0.0839
12.84,0.121
12.8425,0.0846
12.845,0.0778
12.8475,0.109
12.85,0.0612
12.8525,0.084
12.855,0.0592
12.8575,0.103
12.86,0.0531
12.8625,0.0479
12.865,0.0759
12.8675,0.0653
12.87,0.0782
12.8725,0.146
12.875,0.0769
12.8775,0.114
12.88,0.0368
12.8825,0.121
12.885,0.0555
12.8875,0.0224
12.89,0.109
12.8925,0.0714
12.895,0.0481
12.8975,0.122
12.9,0.0276
12.9025,0.118
12.905,0.039
12.9075,0.0472
12.91,0.0396
12.9125,0.0451
12.915,0.0989
12.9175,0.0962
12.92,0.0753
12.9225,0.054
12.925,0.102
12.9275,0.0239
12.93,0.0457
12.9325,0.084
12.935,0.0591
12.9375,0.0383
12.94,0.104
12.9425,0.0475
12.945,0.0413
12.9475,0.079
12.95,0.104
12.9525,0.0823
12.955,0.122
12.9575,0.0949
12.96,0.053
12.9625,0.0714
12.965,0.0677
12.9675,0.107
12.97,0.0478
12.9725,0.125
12.975,0.0568
12.9775,0.083
12.98,0.098
12.9825,0.0906
12.985,0.0758
12.9875,0.0809
12.99,0.0617
12.9925,0.0429
12.995,0.0782
12.9975,0.0689
13,0.122
13.0025,0.0717
13.005,0.11
13.0075,0.0936
13.01,0.0412
13.0125,0.0622
13.015,0.0946
13.0175,0.0484
13.02,0.0584
13.0225,0.0566
13.025,0.101
13.0275,0.0602
13.03,0.11
13.0325,0.0945
13.035,0.0687
13.0375,0.0548
13.04,0.0579
13.0425,0.0273
13.045,0.13
13.0475,0.0374
13.05,0.0976
13.0525,0.0505
13.055,0.106
13.0575,0.0839
13.06,0.0899
13.0625,0.0617
13.065,0.0082
13.0675,0.0515
13.07,0.109
13.0725,0.051
13.075,0.114
13.0775,0.103
13.08,0.0957
13.0825,0.0311
13.085,0.0715
13.0875,0.101
13.09,0.0897
13.0925,0.0733
13.095,0.0672
13.0975,0.0907
13.1,0.0388
13.1025,0.118
13.105,0.112
13.1075,0.0427
13.11,0.0947
13.1125,0.0415
13.115,0.074
13.1175,0.0785
13.12,0.0944
13.1225,0.0363
13.125,0.041
13.1275,0.112
13.13,0.12
13.1325,0.0979
13.135,0.0453
13.1375,0.0183
13.14,0.103
13.1425,0.136
13.145,0.0756
13.1475,0.0798
13.15,0.0569
13.1525,0.0806
13.155,0.0833
13.1575,0.111
13.16,0.123
13.1625,0.0535
13.165,0.0937
13.1675,-0.0782
13.17,0.0927
13.1725,0.845
13.175,1.07
13.1775,-0.555
13.18,-0.387
13.1825,-0.184
13.185,-0.24
13.1875,0.0029
13.19,0.88
13.1925,0.498
13.195,-0.442
13.1975,-0.325
13.2,1.07
13.2025,0.256
13.205,-0.826
13.2075,0.619
13.21,-0.593
13.2125,1.08
13.215,0.746
13.2175,-0.6
13.22,0.0879
13.2225,-0.0908
13.225,-0.154
13.2275,0.207
13.23,-0.0381
13.2325,0.259
13.235,-0.145
13.2375,-0.83
13.24,0.985
13.2425,-0.105
13.245,0.94
13.2475,-0.367
13.25,-0.881
13.2525,-0.683
13.255,0.124
13.2575,1.07
13.26,-0.289
13.2625,-0.646
13.265,-0.717
13.2675,-0.168
13.27,0.291
13.2725,-0.306
13.275,-0.666
13.2775,-0.815
13.28,-0.55
13.2825,-0.643
13.285,0.964
13.2875,0.286
13.29,0.448
13.2925,-0.345
13.295,0.742
13.2975,0.0907
13.3,-0.218
13.3025,0.274
13.305,0.505
13.3075,0.385
13.31,-0.713
13.3125,0.978
13.315,0.627
13.3175,-0.499
13.32,-0.002
13.3225,0.985
13.325,0.672
13.3275,0.481
13.33,-0.495
13.3325,0.448
13.335,1.04
13.3375,0.583
13.34,-0.442
13.3425,0.963
13.345,0.516
13.3475,0.233
13.35,-0.214
13.3525,-0.103
13.355,0.679
13.3575,0.448
13.36,-0.76
13.3625,0.524
13.365,0.667
13.3675,-1.05
13.37,0.107
13.3725,-0.0465
13.375,0.317
13.3775,0.192
13.38,0.202
13.3825,-0.475
13.385,-0.695
13.3875,-0.0352
13.39,-0.789
13.3925,0.74
13.395,0.295
13.3975,0.513
13.4,-0.07
13.4025,1.22
13.405,-0.759
13.4075,-0.899
13.41,0.753
13.4125,0.358
13.415,-0.385
13.4175,1.08
13.42,-0.171
13.4225,0.339
13.425,0.383
13.4275,0.565
13.43,-0.864
13.4325,0.221
13.435,-0.0936
13.4375,0.42
13.44,0.208
13.4425,-0.672
13.445,-0.63
13.4475,0.421
13.45,0.727
13.4525,0.919
13.455,-0.712
13.4575,0.493
13.46,-0.693
13.4625,-0.514
13.465,0.956
13.4675,-0.457
13.47,-0.802
13.4725,-0.583
13.475,0.222
13.4775,0.194
13.48,0.522
13.4825,0.0784
13.485,0.0358
13.4875,0.861
13.49,0.819
13.4925,0.722
13.495,-0.0668
13.4975,-0.918
13.5,-0.466
13.5025,0.882
13.505,-0.182
13.5075,0.836
13.51,0.831
13.5125,-0.305
13.515,-0.293
13.5175,-0.554
13.52,0.147
13.5225,0.807
13.525,0.498
13.5275,-0.634
13.53,0.0108
13.5325,-0.215
13.535,0.566
13.5375,0.83
13.54,0.884
13.5425,-0.61
13.545,-0.639
13.5475,-0.168
13.55,-0.551
13.5525,-0.362
13.555,-0.0795
13.5575,0.55
13.56,-0.562
13.5625,-0.855
13.565,-0.676
13.5675,0.22
13.57,-0.943
13.5725,0.0768
13.575,0.11
13.5775,-0.863
13.58,-0.742
13.5825,0.671
13.585,0.261
13.5875,-0.527
13.59,-0.136
13.5925,-0.582
13.595,-0.628
13.5975,0.719
13.6,0.993
13.6025,0.814
13.605,0.288
13.6075,-0.371
13.61,-0.114
13.6125,0.0307
13.615,-0.43
13.6175,-0.259
13.62,-0.0651
13.6225,0.55
13.625,-0.0768
13.6275,-0.696
13.63,-0.819
13.6325,-0.581
13.635,-0.696
13.6375,-0.246
13.64,0.381
13.6425,0.093
13.645,0.634
13.6475,-0.145
13.65,-0.403
13.6525,0.197
13.655,-0.291
13.6575,0.133
13.66,0.697
13.6625,-0.475
13.665,0.249
13.6675,0.379
13.67,0.0981
13.6725,0.488
13.675,0.187
13.6775,0.799
13.68,0.401
13.6825,-0.0731
13.685,0.109
13.6875,-0.598
13.69,0.203
13.6925,0.59
13.695,-0.0885
13.6975,0.176
13.7,-0.137
13.7025,0.137
13.705,0.153
13.7075,1.02
13.71,1.05
13.7125,0.513
13.715,-0.58
13.7175,-0.666
13.72,0.0858
13.7225,-0.802
13.725,-0.424
13.7275,-0.934
13.73,-0.893
13.7325,-0.99
13.735,0.403
13.7375,0.463
13.74,0.376
13.7425,-0.435
13.745,-0.792
13.7475,0.959
13.75,0.137
13.7525,-0.0751
13.755,1.12
13.7575,0.0781
13.76,-0.891
13.7625,-0.397
13.765,0.257
13.7675,0.751
13.77,-0.0181
13.7725,-0.853
13.775,0.507
13.7775,0.0138
13.78,-0.129
13.7825,-0.656
13.785,-0.373
13.7875,0.226
13.79,0.584
13.7925,0.308
13.795,-0.267
13.7975,0.233
13.8,-0.465
13.8025,-0.012
13.805,0
13.8075,-0.164
13.81,0.0399
13.8125,0.0794
13.815,0.101
13.8175,0.0898
13.82,0.0965
13.8225,0.12
13.825,0.113
13.8275,0.0697
13.83,0.0346
13.8325,0.0726
13.835,0.0407
13.8375,0.0587
13.84,0.0776
13.8425,0.0579
13.845,0.107
13.8475,0.0913
13.85,0.0907
13.8525,0.117
13.855,0.0612
13.8575,0.121
13.86,0.065
13.8625,0.0662
13.865,0.0919
13.8675,0.118
13.87,0.0437
13.8725,0.0706
13.875,0.102
13.8775,0.101
13.88,0.0853
13.8825,0.0719
13.885,0.0762
13.8875,0.113
13.89,0.0654
13.8925,0.0445
13.895,0.0817
13.8975,0.0601
13.9,0.0862
13.9025,0.0501
13.905,0.0931
13.9075,0.0547
13.91,0.0494
13.9125,0.0507
13.915,0.0763
13.9175,0.103
13.92,0.0751
13.9225,0.0732
13.925,0.0248
13.9275,0.113
13.93,0.0548
13.9325,0.113
13.935,0.0368
13.9375,0.055
13.94,0.0934
13.9425,0.084
13.945,0.131
13.9475,0.0679
13.95,0.0737
13.9525,0.0599
13.955,0.036
13.9575,0.0895
13.96,0.0616
13.9625,0.0611
13.965,0.0764
13.9675,0.0738
13.97,0.0645
13.9725,0.11
13.975,0.0835
13.9775,0.0492
13.98,0.135
13.9825,0.11
13.985,0.0794
13.9875,0.126
13.99,0.078
13.9925,0.0716
13.995,0.0325
13.9975,0.0587
14,0.0437
14.0025,0.0718
14.005,0.0719
14.0075,0.0717
14.01,0.0511
14.0125,0.107
14.015,0.0989
14.0175,0.0753
14.02,0.0296
14.0225,0.0623
14.025,0.0799
14.0275,0.0473
14.03,0.082
14.0325,0.0393
14.035,0.0549
14.0375,0.0734
14.04,0.0925
14.0425,0.11
14.045,0.111
14.0475,0.0904
14.05,0.0449
14.0525,0.0356
14.055,0.0992
14.0575,0.0781
14.06,0.0374
14.0625,0.0815
14.065,0.06
14.0675,0.125
14.07,0.07
14.0725,0.0981
14.075,0.0412
14.0775,0.0505
14.08,0.0983
14.0825,0.0366
14.085,0.0617
14.0875,0.0342
14.09,0.0942
14.0925,0.0705
14.095,0.106
14.0975,0.105
14.1,0.132
14.1025,0.0501
14.105,0.117
14.1075,0.1
14.11,0.0572
14.1125,0.0496
14.115,0.0799
14.1175,0.0377
14.12,0.124
14.1225,0.113
14.125,0.0471
14.1275,0.0648
14.13,0.0779
14.1325,0.0952
14.135,0.0671
14.1375,0.0913
14.14,0.0489
14.1425,0.0648
14.145,0.0353
14.1475,0.088
14.15,0.032
14.1525,0.0734
14.155,0.0577
14.1575,0.0345
14.16,0.0517
14.1625,0.0641
14.165,0.119
14.1675,0.067
14.17,0.0933
14.1725,0.158
14.175,0.701
14.1775,0.731
14.18,-0.143
14.1825,0.842
14.185,0.719
14.1875,0.963
14.19,0.757
14.1925,-0.718
14.195,-0.898
14.1975,-0.36
14.2,0.113
14.2025,-0.0218
14.205,-0.431
14.2075,0.829
14.21,-0.187
14.2125,1.04
14.215,0.546
14.2175,-0.339
14.22,-1.08
14.2225,0.443
14.225,-0.363
14.2275,0.372
14.23,0.46
14.2325,0.298
14.235,-0.573
14.2375,-0.577
14.24,0.986
14.2425,0.492
14.245,-0.543
14.2475,-0.734
14.25,0.438
14.2525,0.494
14.255,-0.0003
14.2575,-0.331
14.26,-0.411
14.2625,0.425
14.265,0.0834
14.2675,0.41
14.27,0.755
14.2725,0.67
14.275,-0.71
14.2775,0.548
14.28,0.448
14.2825,0.758
14.285,0.3
14.2875,0.602
14.29,0.614
14.2925,0.291
14.295,-0.787
14.2975,-0.821
14.3,0.777
14.3025,-1.03
14.305,0.555
14.3075,0.565
14.31,0.802
14.3125,0.636
14.315,-0.775
14.3175,0.378
14.32,-0.0891
14.3225,-0.87
14.325,0.0366
14.3275,0.747
14.33,0.493
14.3325,0.65
14.335,-0.849
14.3375,-0.198
14.34,-0.103
14.3425,-1.01
14.345,0.211
14.3475,0.578
14.35,-0.532
14.3525,0.307
14.355,-0.537
14.3575,-0.582
14.36,-0.205
14.3625,-0.648
14.365,-0.22
14.3675,0.39
14.37,0.505
14.3725,0.905
14.375,0.362
14.3775,-0.859
14.38,-0.398
14.3825,0.407
14.385,0.563
14.3875,0.758
14.39,-0.987
14.3925,0.811
14.395,-0.316
14.3975,0.933
14.4,0.0441
14.4025,-0.38
14.405,0.223
14.4075,0.195
14.41,0.851
14.4125,-0.497
14.415,-0.0809
14.4175,0.549
14.42,0.0096
14.4225,-0.215
14.425,0.0905
14.4275,-0.428
14.43,-0.57
14.4325,-0.0068
14.435,0.785
14.4375,-0.712
14.44,-0.961
14.4425,-0.154
14.445,1.4
14.4475,0.396
14.45,0.159
14.4525,-0.174
14.455,1
14.4575,0.821
14.46,0.962
14.4625,0.728
14.465,0.777
14.4675,0.128
14.47,1.07
14.4725,-0.0049
14.475,0.714
14.4775,0.503
14.48,-0.017
14.4825,-0.893
14.485,0.439
14.4875,-0.24
14.49,0.451
14.4925,0.516
14.495,-0.654
14.4975,0.226
14.5,0.593
14.5025,-0.572
14.505,-0.324
14.5075,-0.277
14.51,-0.371
14.5125,-0.31
14.515,-0.135
14.5175,-0.227
14.52,-0.175
14.5225,0.23
14.525,0.791
14.5275,0.534
14.53,-0.0099
14.5325,-0.339
14.535,-0.0658
14.5375,-0.0062
14.54,0.924
14.5425,0.0678
14.545,-0.353
14.5475,0.117
14.55,0.248
14.5525,-0.983
14.555,-0.473
14.5575,-0.647
14.56,-0.753
14.5625,-0.434
14.565,0.185
14.5675,1.03
14.57,0.288
14.5725,-0.0783
14.575,-0.228
14.5775,-0.0735
14.58,-0.446
14.5825,0.702
14.585,0.201
14.5875,0.764
14.59,-0.351
14.5925,0.787
14.595,-0.0872
14.5975,0.294
14.6,0.447
14.6025,0.154
14.605,0.361
14.6075,-0.299
14.61,0.389
14.6125,0.845
14.615,-0.571
14.6175,-0.172
14.62,0.861
14.6225,-0.333
14.625,0.0458
14.6275,-0.135
14.63,-0.671
14.6325,0.964
14.635,-0.551
14.6375,-0.834
14.64,0.25
14.6425,-0.0597
14.645,-0.527
14.6475,0.563
14.65,0.184
14.6525,-0.205
14.655,-0.846
14.6575,0.769
14.66,0.288
14.6625,-0.695
14.665,-0.163
14.6675,0.88
14.67,0.419
14.6725,-0.761
14.675,0.362
14.6775,-0.55
14.68,0.354
14.6825,0.0178
14.685,-0.228
14.6875,-0.358
14.69,-0.596
14.6925,0.542
14.695,1.01
14.6975,-0.135
14.7,0.636
14.7025,0.508
14.705,0.682
14.7075,0.634
14.71,0.417
14.7125,-0.0057
14.715,-0.711
14.7175,-0.243
14.72,0.843
14.7225,0.733
14.725,-0.515
14.7275,-0.544
14.73,0.894
14.7325,0.716
14.735,-0.197
14.7375,0.616
14.74,-0.168
14.7425,0.755
14.745,-0.523
14.7475,-0.546
14.75,-0.942
14.7525,-0.466
14.755,-0.525
14.7575,0.198
14.76,0.57
14.7625,-0.262
14.765,0.195
14.7675,0.0626
14.77,0.238
14.7725,-0.344
14.775,-0.787
14.7775,0.672
14.78,-0.38
14.7825,0.0928
14.785,0.606
14.7875,-0.0808
14.79,-0.127
14.7925,-0.114
14.795,0.616
14.7975,0.892
14.8,0.665
14.8025,0.0405
14.805,0.149
14.8075,-0.522
14.81,0.436
14.8125,-0.54
14.815,0.125
14.8175,0.0904
14.82,0.139
14.8225,0.0937
14.825,0.088
14.8275,0.115
14.83,0.0438
14.8325,0.0754
14.835,0.135
14.8375,0.0623
14.84,0.0574
14.8425,0.0663
14.845,0.0784
14.8475,0.0746
14.85,0.104
14.8525,0.0352
14.855,0.0793
14.8575,0.0177
14.86,0.0767
14.8625,0.128
14.865,0.0555
14.8675,0.0632
14.87,0.0504
14.8725,0.0659
14.875,0.0816
14.8775,0.0472
14.88,0.0915
14.8825,0.123
14.885,0.0732
14.8875,0.0853
14.89,0.0948
14.8925,0.0318
14.895,0.0689
14.8975,0.0475
14.9,0.0594
14.9025,0.0426
14.905,0.0884
14.9075,0.106
14.91,0.0875
14.9125,0.0702
14.915,0.0593
14.9175,0.0887
14.92,0.0702
14.9225,0.0722
14.925,0.055
14.9275,0.0492
14.93,0.03
14.9325,0.0431
14.935,0.141
14.9375,0.0282
14.94,0.124
14.9425,0.0734
14.945,0.0833
14.9475,0.0533
14.95,0.116
14.9525,0.121
14.955,0.112
14.9575,0.0915
14.96,0.0939
14.9625,0.0372
14.965,0.0516
14.9675,0.0936
14.97,0.117
14.9725,0.0512
14.975,0.0549
14.9775,0.0831
14.98,0.0768
14.9825,0.113
14.985,0.068
14.9875,0.078
14.99,0.0551
14.9925,0.063
14.995,0.0563
14.9975,0.0643
15,0.0241
15.0025,0.0519
15.005,0.0208
15.0075,0.101
15.01,0.0419
15.0125,0.0922
15.015,0.0757
15.0175,0.0705
15.02,0.0641
15.0225,0.0661
15.025,0.107
15.0275,0.0587
15.03,0.0423
15.0325,0.0864
15.035,0.0906
15.0375,0.0736
15.04,0.0588
15.0425,0.089
15.045,0.0655
15.0475,0.0851
15.05,0.0548
15.0525,0.0769
15.055,0.0376
15.0575,0.0803
15.06,0.0887
15.0625,0.0481
15.065,0.103
15.0675,0.0635
15.07,0.118
15.0725,0.0855
15.075,0.0766
15.0775,0.107
15.08,0.106
15.0825,0.063
15.085,0.092
15.0875,0.0862
15.09,0.0295
15.0925,0.131
15.095,0.0467
15.0975,0.0807
15.1,0.0484
15.1025,0.0387
15.105,0.106
15.1075,0.0548
15.11,0.08
15.1125,0.067
15.115,0.0347
15.1175,0.127
15.12,0.08
15.1225,0.0897
15.125,0.115
15.1275,0.108
15.13,0.0927
15.1325,0.0603
15.135,0.0691
15.1375,0.0829
15.14,0.06
15.1425,0.108
15.145,0.0403
15.1475,0.0557
15.15,0.108
15.1525,0.0894
15.155,0.114
15.1575,0.106
15.16,0.0353
15.1625,0.0422
15.165,0.0951
15.1675,0.0906
15.17,0.0803
15.1725,0.0684
15.175,0.0938
15.1775,0.0676
15.18,0.786
15.1825,0.0719
15.185,-0.375
15.1875,-0.399
15.19,0.171
15.1925,0.494
15.195,-0.328
15.1975,0.336
15.2,1.05
15.2025,-0.628
15.205,0.282
15.2075,0.804
15.21,-0.609
15.2125,0.309
15.215,-0.129
15.2175,-0.6
15.22,-0.409
15.2225,-0.594
15.225,-0.413
15.2275,-0.463
15.23,-0.788
15.2325,0.257
15.235,0.834
15.2375,-0.107
15.24,0.565
15.2425,0.298
15.245,0.787
15.2475,0.447
15.25,-0.525
15.2525,-0.647
15.255,0.843
15.2575,-0.0505
15.26,-0.566
15.2625,-0.945
15.265,1
15.2675,0.0138
15.27,0.196
15.2725,-0.161
15.275,-0.47
15.2775,-0.788
15.28,0.0063
15.2825,-0.213
15.285,0.567
15.2875,0.386
15.29,-0.182
15.2925,0.559
15.295,-0.723
15.2975,0.97
15.3,0.0621
15.3025,0.0002
15.305,0.834
15.3075,-0.716
15.31,0.974
15.3125,0.726
15.315,0.518
15.3175,-0.0945
15.32,0.546
15.3225,-0.489
15.325,-0.529
15.3275,1.07
15.33,0.719
15.3325,0.61
15.335,0.788
15.3375,0.399
15.34,0.533
15.3425,0.106
15.345,0.457
15.3475,0.0301
15.35,0.0474
15.3525,-0.0076
15.355,0.283
15.3575,-0.847
15.36,-0.853
15.3625,-0.225
15.365,-0.234
15.3675,-1.02
15.37,-0.475
15.3725,-0.314
15.375,-0.131
15.3775,0.443
15.38,0.611
15.3825,-0.119
15.385,0.212
15.3875,0.682
15.39,-0.425
15.3925,-0.587
15.395,-0.591
15.3975,-0.905
15.4,0.436
15.4025,-0.544
15.405,0.942
15.4075,-0.749
15.41,-0.0703
15.4125,-0.917
15.415,0.552
15.4175,-0.0625
15.42,0.581
15.4225,0.735
15.425,0.129
15.4275,0.514
15.43,-0.396
15.4325,-0.766
15.435,-0.438
15.4375,0.504
15.44,1.05
15.4425,0.0605
15.445,0.0241
15.4475,-0.401
15.45,-0.502
15.4525,0.26
15.455,1.14
15.4575,-0.286
15.46,-0.486
15.4625,0.62
15.465,-0.575
15.4675,1.03
15.47,-0.621
15.4725,-0.189
15.475,0.176
15.4775,-0.662
15.48,0.325
15.4825,0.617
15.485,-0.302
15.4875,0.526
15.49,0.0577
15.4925,-0.408
15.495,0.0995
15.4975,1.12
15.5,0.178
15.5025,0.537
15.505,-0.414
15.5075,0.149
15.51,0.376
15.5125,-0.657
15.515,-0.629
15.5175,1.17
15.52,-0.845
15.5225,-0.634
15.525,0.576
15.5275,-0.0506
15.53,-0.682
15.5325,1.25
15.535,-0.179
15.5375,0.75
15.54,-0.0921
15.5425,0.892
15.545,-0.312
15.5475,1.03
15.55,-0.687
15.5525,0.173
15.555,-0.24
15.5575,0.32
15.56,0.155
15.5625,-0.073
15.565,-0.755
15.5675,0.041
15.57,-1.07
15.5725,-0.689
15.575,-0.296
15.5775,0.902
15.58,0.191
15.5825,0.63
15.585,0.437
15.5875,0.855
15.59,0.788
15.5925,0.844
15.595,-0.482
15.5975,0.619
15.6,-0.501
15.6025,-0.481
15.605,-0.698
15.6075,0.288
15.61,0.501
15.6125,-0.921
15.615,0.0158
15.6175,-0.907
15.62,-0.1
15.6225,0.349
15.625,-0.278
15.6275,1.02
15.63,0.763
15.6325,-0.509
15.635,-0.0984
15.6375,0.795
15.64,0.929
15.6425,-0.153
15.645,-0.309
15.6475,-0.438
15.65,0.93
15.6525,-0.172
15.655,0.337
15.6575,0.59
15.66,-0.217
15.6625,-0.26
15.665,-0.729
15.6675,-0.612
15.67,-0.312
15.6725,0.0661
15.675,-0.249
15.6775,-0.612
15.68,0.669
15.6825,-0.521
15.685,1.01
15.6875,0.351
15.69,-0.17
15.6925,1.12
15.695,-0.105
15.6975,-0.273
15.7,0.457
15.7025,-0.834
15.705,0.357
15.7075,0.5
15.71,-0.0295
15.7125,-0.204
15.715,0.226
15.7175,0.829
15.72,0.387
15.7225,0.0514
15.725,0.449
15.7275,-0.831
15.73,-0.267
15.7325,0.229
15.735,-0.226
15.7375,-0.0635
15.74,-0.479
15.7425,0.667
15.745,0.408
15.7475,0.927
15.75,0.632
15.7525,-0.137
15.755,-0.305
15.7575,-0.0501
15.76,-0.28
15.7625,0.459
15.765,0.545
15.7675,-0.337
15.77,-0.503
15.7725,0.889
15.775,-0.239
15.7775,-0.176
15.78,-0.994
15.7825,0.7
15.785,0.029
15.7875,0.491
15.79,0.517
15.7925,0.607
15.795,0.749
15.7975,0.232
15.8,-0.531
15.8025,-0.739
15.805,0.951
15.8075,0.692
15.81,-0.873
15.8125,-0.534
15.815,-0.666
15.8175,-0.397
15.82,0.106
15.8225,0.11
15.825,0.0577
15.8275,0.0387
15.83,0.068
15.8325,0.0522
15.835,0.103
15.8375,0.109
15.84,0.0489
15.8425,0.0479
15.845,0.0734
15.8475,0.111
15.85,0.0552
15.8525,0.0681
15.855,0.102
15.8575,0.0743
15.86,0.113
15.8625,0.0455
15.865,0.0662
15.8675,0.0956
15.87,0.0969
15.8725,0.0696
15.875,0.0211
15.8775,0.0306
15.88,0.0321
15.8825,0.0442
15.885,0.0717
15.8875,0.059
15.89,0.0801
15.8925,0.0856
15.895,0.062
15.8975,0.0806
15.9,0.0868
15.9025,0.103
15.905,0.0622
15.9075,0.102
15.91,0.0815
15.9125,0.0438
15.915,0.0816
15.9175,0.063
15.92,0.0507
15.9225,0.0702
15.925,0.0303
15.9275,0.119
15.93,0.0603
15.9325,0.0622
15.935,0.112
15.9375,0.0773
15.94,0.0936
15.9425,0.0243
15.945,0.117
15.9475,0.0262
15.95,0.0385
15.9525,0.0531
15.955,0.088
15.9575,0.0847
15.96,0.0485
15.9625,0.0687
15.965,0.0994
15.9675,0.0442
15.97,0.0806
15.9725,0.0418
15.975,0.12
15.9775,0.0833
15.98,0.048
15.9825,0.101
15.985,0.0945
15.9875,0.114
15.99,0.0265
15.9925,0.1
15.995,0.109
15.9975,0.0699
16,0.0478
16.0025,0.0886
16.005,0.101
16.0075,0.0779
16.01,0.0815
16.0125,0.0799
16.015,0.104
16.0175,0.0495
16.02,0.0457
16.0225,0.0998
16.025,0.0336
16.0275,0.122
16.03,0.0989
16.0325,0.0386
16.035,0.0627
16.0375,0.085
16.04,0.0697
16.0425,0.0864
16.045,0.1
16.0475,0.0682
16.05,0.114
16.0525,0.0754
16.055,0.0519
16.0575,0.117
16.06,0.141
16.0625,0.0925
16.065,0.0648
16.0675,0.105
16.07,0.082
16.0725,0.0993
16.075,0.092
16.0775,0.0432
16.08,0.0974
16.0825,0.0401
16.085,0.071
16.0875,0.0985
16.09,0.123
16.0925,0.0837
16.095,0.0587
16.0975,0.0468
16.1,0.0456
16.1025,0.106
16.105,0.128
16.1075,0.0664
16.11,0.0704
16.1125,0.0796
16.115,0.0672
16.1175,0.0342
16.12,0.119
16.1225,0.117
16.125,0.0607
16.1275,0.0717
16.13,0.0326
16.1325,0.0765
16.135,0.0395
16.1375,0.109
16.14,0.0755
16.1425,0.0931
16.145,0.0977
16.1475,0.0572
16.15,0.0571
16.1525,0.0586
16.155,0.0855
16.1575,0.0371
16.16,0.0656
16.1625,0.112
16.165,0.033
16.1675,0.112
16.17,0.0937
16.1725,0.0737
16.175,0.0847
16.1775,0.0889
16.18,0.0579
16.1825,0.138
16.185,0.569
16.1875,0.769
16.19,-0.759
16.1925,-0.276
16.195,0.226
16.1975,-0.332
16.2,-0.624
16.2025,0.496
16.205,0.189
16.2075,0.368
16.21,-0.375
16.2125,0.573
16.215,-0.114
16.2175,-0.344
16.22,0.506
16.2225,0.206
16.225,0.384
16.2275,0.39
16.23,0.0716
16.2325,1.01
16.235,0.997
16.2375,0.373
16.24,-0.855
16.2425,1
16.245,0.2
16.2475,-0.121
16.25,0.271
16.2525,-0.396
16.255,-0.123
16.2575,0.0428
16.26,-0.378
16.2625,-0.733
16.265,0.312
16.2675,0.696
16.27,-0.53
16.2725,0.269
16.275,0.46
16.2775,0.599
16.28,0.219
16.2825,-0.145
16.285,-0.406
16.2875,-0.903
16.29,0.348
16.2925,-0.12
16.295,-0.57
16.2975,0.836
16.3,-0.454
16.3025,0.203
16.305,0.905
16.3075,0.333
16.31,1.16
16.3125,0.229
16.315,0.426
16.3175,-0.007
16.32,-0.558
16.3225,-0.563
16.325,0.189
16.3275,-0.832
16.33,-0.515
16.3325,-0.0716
16.335,-0.679
16.3375,0.0927
16.34,0.583
16.3425,0.0408
16.345,-0.629
16.3475,-0.623
16.35,0.903
16.3525,-0.942
16.355,0.218
16.3575,-0.973
16.36,0.793
16.3625,0.171
16.365,1
16.3675,0.093
16.37,-0.531
16.3725,0.925
16.375,-0.208
16.3775,0.321
16.38,-0.0994
16.3825,0.412
16.385,-0.836
16.3875,-0.161
16.39,-0.286
16.3925,0.617
16.395,0.491
16.3975,-0.361
16.4,0.571
16.4025,0.26
16.405,0.543
16.4075,-0.404
16.41,0.46
16.4125,0.122
16.415,0.111
16.4175,0.958
16.42,-0.208
16.4225,-0.358
16.425,0.519
16.4275,-0.193
16.43,-0.903
16.4325,-0.777
16.435,1.1
16.4375,0.787
16.44,-0.166
16.4425,-0.0851
16.445,0.67
16.4475,-0.817
16.45,0.0842
16.4525,-0.825
16.455,-0.849
16.4575,0.27
16.46,0.962
16.4625,0.139
16.465,1.11
16.4675,0.223
16.47,0.659
16.4725,0.208
16.475,0.761
16.4775,0.476
16.48,0.387
16.4825,0.0213
16.485,-1
16.4875,0.746
16.49,0.0102
16.4925,-0.196
16.495,0.136
16.4975,-0.313
16.5,0.803
16.5025,0.538
16.505,0.846
16.5075,0.319
16.51,-0.719
16.5125,0.838
16.515,-0.325
16.5175,-0.131
16.52,-0.775
16.5225,0.676
16.525,-0.412
16.5275,-0.388
16.53,-0.255
16.5325,0.75
16.535,-0.306
16.5375,0.121
16.54,-0.267
16.5425,-0.304
16.545,-0.0184
16.5475,0.522
16.55,0.45
16.5525,-0.431
16.555,-0.0397
16.5575,0.793
16.56,0.579
16.5625,-0.533
16.565,0.409
16.5675,0.373
16.57,-0.5
16.5725,0.0825
16.575,-0.28
16.5775,-0.566
16.58,0.25
16.5825,-0.189
16.585,-0.829
16.5875,0.572
16.59,-0.752
16.5925,-0.464
16.595,0.321
16.5975,-0.264
16.6,1.02
16.6025,-0.893
16.605,0.136
16.6075,-0.0745
16.61,0.0681
16.6125,0.0135
16.615,-0.683
16.6175,-0.257
16.62,-0.562
16.6225,0.252
16.625,-1.08
16.6275,0.1
16.63,0.923
16.6325,0.536
16.635,0.945
16.6375,-0.153
16.64,0.471
16.6425,-0.24
16.645,-0.348
16.6475,-0.494
16.65,-0.734
16.6525,0.562
16.655,0.261
16.6575,0.457
16.66,-0.99
16.6625,-0.193
16.665,0.789
16.6675,-0.541
16.67,0.778
16.6725,-0.339
16.675,0.127
16.6775,0.854
16.68,0.662
16.6825,0.722
16.685,-0.467
16.6875,0.383
16.69,-0.723
16.6925,-0.859
16.695,-0.589
16.6975,0.732
16.7,0.227
16.7025,0.141
16.705,-0.169
16.7075,0.906
16.71,0.244
16.7125,-0.55
16.715,-0.587
16.7175,-0.152
16.72,-0.691
16.7225,-0.862
16.725,0.193
16.7275,-0.585
16.73,0.879
16.7325,0.136
16.735,0.535
16.7375,-0.563
16.74,0.0379
16.7425,-0.303
16.745,-0.518
16.7475,0.0748
16.75,0.731
16.7525,0.377
16.755,0.386
16.7575,-0.326
16.76,0.463
16.7625,-0.0028
16.765,-0.188
16.7675,-0.557
16.77,-0.0972
16.7725,0.719
16.775,-0.4
16.7775,0.406
16.78,-0.295
16.7825,0.073
16.785,-0.303
16.7875,-0.558
16.79,0.584
16.7925,-0.497
16.795,-0.171
16.7975,-0.871
16.8,-0.836
16.8025,-0.226
16.805,0.912
16.8075,-0.289
16.81,-0.511
16.8125,0.0295
16.815,0.0776
16.8175,0.409
16.82,-0.744
16.8225,-0.0355
16.825,0.106
16.8275,0.0654
16.83,0.0498
16.8325,0.111
16.835,0.0656
16.8375,0.0298
16.84,0.0726
16.8425,0.0579
16.845,0.115
16.8475,0.0441
16.85,0.0312
16.8525,0.116
16.855,0.0945
16.8575,0.12
16.86,0.102
16.8625,0.124
16.865,0.052
16.8675,0.0614
16.87,0.0584
16.8725,0.0753
16.875,0.073
16.8775,0.122
16.88,0.0843
16.8825,0.0719
16.885,0.0761
16.8875,0.121
16.89,0.0844
16.8925,0.0538
16.895,0.121
16.8975,0.133
16.9,0.0944
16.9025,0.0475
16.905,0.0736
16.9075,0.0406
16.91,0.114
16.9125,0.0659
16.915,0.0264
16.9175,0.05
16.92,0.137
16.9225,0.0521
16.925,0.0641
16.9275,0.0989
16.93,0.1
16.9325,0.083
16.935,0.068
16.9375,0.117
16.94,0.0693
16.9425,0.031
16.945,0.0522
16.9475,0.0707
16.95,0.0346
16.9525,0.11
16.955,0.0447
16.9575,0.0887
16.96,0.139
16.9625,0.0811
16.965,0.0298
16.9675,0.121
16.97,0.114
16.9725,0.105
16.975,0.0971
16.9775,0.0835
16.98,0.121
16.9825,0.0208
16.985,0.0732
16.9875,0.12
16.99,0.114
16.9925,0.0721
16.995,0.0564
16.9975,0.0967
17,0.132
17.0025,0.111
17.005,0.126
17.0075,0.0792
17.01,0.119
17.0125,0.0601
17.015,0.116
17.0175,0.102
17.02,0.117
17.0225,0.112
17.025,0.0757
17.0275,0.127
17.03,0.0702
17.0325,0.105
17.035,0.0132
17.0375,0.0487
17.04,0.0392
17.0425,0.0772
17.045,0.0812
17.0475,0.0593
17.05,0.0771
17.0525,0.0982
17.055,0.0714
17.0575,0.0806
17.06,0.0594
17.0625,0.0788
17.065,0.0833
17.0675,0.0823
17.07,0.0512
17.0725,0.0703
17.075,0.0414
17.0775,0.0357
17.08,0.0766
17.0825,0.0488
17.085,0.0869
17.0875,0.107
17.09,0.0911
17.0925,0.0576
17.095,0.0735
17.0975,0.0566
17.1,0.132
17.1025,0.0956
17.105,0.0566
17.1075,0.0503
17.11,0.0863
17.1125,0.0867
17.115,0.0512
17.1175,0.0724
17.12,0.0347
17.1225,0.103
17.125,0.114
17.1275,0.0339
17.13,0.0777
17.1325,0.136
17.135,0.055
17.1375,0.108
17.14,0.06
17.1425,0.118
17.145,0.0791
17.1475,0.111
17.15,0.0877
17.1525,0.0948
17.155,0.0693
17.1575,0.12
17.16,0.0293
17.1625,0.104
17.165,0.0733
17.1675,0.0663
17.17,0.114
17.1725,0.0685
17.175,0.091
17.1775,0.0787
17.18,0.0746
17.1825,0.0565
17.185,0.103
17.1875,0.0488
17.19,0.405
17.1925,-0.535
17.195,0.269
17.1975,0.365
17.2,0.893
17.2025,-0.0796
17.205,0.442
17.2075,0.381
17.21,-0.985
17.2125,1.3
17.215,0.598
17.2175,0.177
17.22,0.512
17.2225,0.427
17.225,-0.846
17.2275,1.07
17.23,-0.408
17.2325,0.878
17.235,0.185
17.2375,0.329
17.24,-0.0171
17.2425,0.644
17.245,-0.415
17.2475,0.565
17.25,-0.283
17.2525,-0.421
17.255,0.196
17.2575,1.11
17.26,0.15
17.2625,0.106
17.265,-0.69
17.2675,0.331
17.27,0.359
17.2725,-0.769
17.275,0.376
17.2775,-0.284
17.28,-0.663
17.2825,0.453
17.285,0.731
17.2875,0.0283
17.29,0.625
17.2925,-0.487
17.295,0.173
17.2975,-0.349
17.3,-0.182
17.3025,0.272
17.305,-0.0899
17.3075,-0.651
17.31,0.474
17.3125,0.15
17.315,-0.874
17.3175,0.792
17.32,0.162
17.3225,-0.222
17.325,0.378
17.3275,0.345
17.33,-0.474
17.3325,0.659
17.335,0.348
17.3375,0.31
17.34,-0.428
17.3425,-0.173
17.345,0.342
17.3475,-0.757
17.35,-0.6
17.3525,-0.472
17.355,-0.134
17.3575,-0.207
17.36,0.368
17.3625,0.373
17.365,0.276
17.3675,-0.647
17.37,-0.0072
17.3725,0.611
17.375,0.65
17.3775,0.59
17.38,-0.517
17.3825,1.1
17.385,-0.783
17.3875,0.664
17.39,0.655
17.3925,-0.617
17.395,0.819
17.3975,1.22
17.4,-0.125
17.4025,0.203
17.405,0.675
17.4075,-0.226
17.41,0.146
17.4125,0.74
17.415,-0.117
17.4175,-0.453
17.42,-0.863
17.4225,-0.457
17.425,-0.304
17.4275,-0.491
17.43,-0.152
17.4325,-0.0184
17.435,0.348
17.4375,-0.955
17.44,0.169
17.4425,0.837
17.445,-0.635
17.4475,-0.441
17.45,-0.0864
17.4525,-1.06
17.455,-0.0761
17.4575,-0.204
17.46,0.272
17.4625,-0.508
17.465,0.414
17.4675,-0.769
17.47,1.16
17.4725,-0.338
17.475,-0.233
17.4775,0.21
17.48,0.948
17.4825,-0.606
17.485,0.622
17.4875,-0.322
17.49,0.794
17.4925,-0.152
17.495,-0.205
17.4975,-0.0639
17.5,0.453
17.5025,0.461
17.505,0.438
17.5075,-0.334
17.51,0.264
17.5125,-0.016
17.515,0.62
17.5175,-0.704
17.52,0.154
17.5225,0.751
17.525,0.684
17.5275,0.47
17.53,-0.484
17.5325,-0.0001
17.535,-0.724
17.5375,-0.356
17.54,0.576
17.5425,-1.05
17.545,0.259
17.5475,1.08
17.55,-0.673
17.5525,-0.483
17.555,0.393
17.5575,-0.046
17.56,0.756
17.5625,0.801
17.565,-0.52
17.5675,0.0154
17.57,-0.0039
17.5725,-0.101
17.575,0.929
17.5775,0.909
17.58,-0.22
17.5825,-0.571
17.585,0.0153
17.5875,-0.104
17.59,0.104
17.5925,-0.149
17.595,0.458
17.5975,0.473
17.6,-0.298
17.6025,0.563
17.605,-0.311
17.6075,0.628
17.61,0.6
17.6125,0.195
17.615,0.761
17.6175,0.444
17.62,0.143
17.6225,-0.689
17.625,-0.441
17.6275,0.627
17.63,0.0189
17.6325,-0.259
17.635,0.302
17.6375,0.357
17.64,0.0714
17.6425,-0.138
17.645,-0.198
17.6475,-0.245
17.65,0.895
17.6525,-0.0825
17.655,0.816
17.6575,-0.854
17.66,-0.688
17.6625,0.146
17.665,0.459
17.6675,-0.7
17.67,-0.339
17.6725,1.03
17.675,0.141
17.6775,0.444
17.68,0.758
17.6825,-0.924
17.685,-0.195
17.6875,-0.353
17.69,0.0374
17.6925,0.359
17.695,-0.695
17.6975,-0.219
17.7,0.394
17.7025,-0.476
17.705,0.0325
17.7075,0.803
17.71,-0.0513
17.7125,0.701
17.715,-0.351
17.7175,-0.445
17.72,-0.0869
17.7225,-0.156
17.725,0.0097
17.7275,1.16
17.73,-0.538
17.7325,0.593
17.735,0.624
17.7375,-0.765
17.74,0.373
17.7425,-0.295
17.745,-0.174
17.7475,-0.634
17.75,0.37
17.7525,0.485
17.755,-0.783
17.7575,0.367
17.76,-0.81
17.7625,-0.702
17.765,0.822
17.7675,-0.596
17.77,0.0176
17.7725,0.533
17.775,0.22
17.7775,0.282
17.78,0.499
17.7825,-0.0692
17.785,-0.146
17.7875,0.059
17.79,0.529
17.7925,0.779
17.795,0.456
17.7975,0.3
17.8,0.125
17.8025,-0.026
17.805,-0.579
17.8075,-0.182
17.81,-0.174
17.8125,0.472
17.815,-0.511
17.8175,-0.264
17.82,-0.585
17.8225,0.553
17.825,0.307
17.8275,-0.803
17.83,0.0446
17.8325,0.0832
17.835,0.0732
17.8375,0.1
17.84,0.0608
17.8425,0.0436
17.845,0.0612
17.8475,0.0597
17.85,0.104
17.8525,0.0858
17.855,0.031
17.8575,0.0627
17.86,0.103
17.8625,0.103
17.865,0.114
17.8675,0.0378
17.87,0.0775
17.8725,0.0881
17.875,0.0911
17.8775,0.0888
17.88,0.0946
17.8825,0.111
17.885,0.076
17.8875,0.134
17.89,0.0848
17.8925,0.0808
17.895,0.109
17.8975,0.0709
17.9,0.108
17.9025,0.0412
17.905,0.0423
17.9075,0.0652
17.91,0.0983
17.9125,0.0556
17.915,0.0973
17.9175,0.0677
17.92,0.0483
17.9225,0.12
17.925,0.0904
17.9275,0.0885
17.93,0.0481
17.9325,0.0212
17.935,0.0883
17.9375,0.0679
17.94,0.0479
17.9425,0.111
17.945,0.108
17.9475,0.0563
17.95,0.0639
17.9525,0.0852
17.955,0.116
17.9575,0.119
17.96,0.0483
17.9625,0.0826
17.965,0.0495
17.9675,0.132
17.97,0.0678
17.9725,0.0993
17.975,0.0758
17.9775,0.0784
17.98,0.0872
17.9825,0.0926
17.985,0.0997
17.9875,0.0747
17.99,0.0524
17.9925,0.113
17.995,0.0737
17.9975,0.128
18,0.0765
18.0025,0.108
18.005,0.13
18.0075,0.0293
18.01,0.0739
18.0125,0.037
18.015,0.0896
18.0175,0.0781
18.02,0.0422
18.0225,0.129
18.025,0.118
18.0275,0.123
18.03,0.0537
18.0325,0.0401
18.035,0.054
18.0375,0.0531
18.04,0.107
18.0425,0.0602
18.045,0.0414
18.0475,0.0534
18.05,0.0886
18.0525,0.0713
18.055,0.101
18.0575,0.131
18.06,0.0393
18.0625,0.0776
18.065,0.0682
18.0675,0.093
18.07,0.0529
18.0725,0.0982
18.075,0.105
18.0775,0.111
18.08,0.0917
18.0825,0.0423
18.085,0.102
18.0875,0.112
18.09,0.0939
18.0925,0.0423
18.095,0.0591
18.0975,0.0932
18.1,0.0904
18.1025,0.144
18.105,0.105
18.1075,0.0615
18.11,0.0898
18.1125,0.107
18.115,0.0657
18.1175,0.0671
18.12,0.0493
18.1225,0.0893
18.125,0.107
18.1275,0.0786
18.13,0.0676
18.1325,0.0621
18.135,0.0692
18.1375,0.0953
18.14,0.0766
18.1425,0.05
18.145,0.0961
18.1475,0.0829
18.15,0.11
18.1525,0.0956
18.155,0.0473
18.1575,0.118
18.16,0.0542
18.1625,0.0645
18.165,0.0801
18.1675,0.0594
18.17,0.0735
18.1725,0.135
18.175,0.0407
18.1775,0.0618
18.18,0.101
18.1825,0.0548
18.185,0.0516
18.1875,0.0912
18.19,0.0867
18.1925,0.0891
18.195,-0.0596
18.1975,0.536
18.2,-0.0332
18.2025,0.45
18.205,-0.611
18.2075,0.816
18.21,0.523
18.2125,-0.794
18.215,0.147
18.2175,-0.244
18.22,0.842
18.2225,0.0851
18.225,0.155
18.2275,0.091
18.23,0.207
18.2325,0.0795
18.235,-0.0797
18.2375,0.0534
18.24,0.207
18.2425,0.973
18.245,-0.066
18.2475,0.537
18.25,0.675
18.2525,-0.842
18.255,-0.979
18.2575,-0.362
18.26,0.265
18.2625,-0.638
18.265,1.01
18.2675,0.497
18.27,-0.0217
18.2725,0.904
18.275,0.49
18.2775,0.506
18.28,-1.12
18.2825,-0.125
18.285,-0.161
18.2875,0.0508
18.29,0.152
18.2925,0.931
18.295,-0.591
18.2975,0.296
18.3,-0.686
18.3025,-0.669
18.305,-0.372
18.3075,1.01
18.31,0.438
18.3125,1.04
18.315,0.0168
18.3175,0.516
18.32,0.694
18.3225,-0.31
18.325,0.392
18.3275,0.0609
18.33,0.166
18.3325,0.0709
18.335,-0.778
18.3375,-0.557
18.34,0.609
18.3425,0.297
18.345,0.0327
18.3475,-0.837
18.35,-0.0112
18.3525,0.556
18.355,-0.213
18.3575,0.182
18.36,0.0301
18.3625,0.834
18.365,-0.2
18.3675,-0.47
18.37,0.662
18.3725,-0.208
18.375,0.136
18.3775,0.34
18.38,0.388
18.3825,-1.09
18.385,0.278
18.3875,-0.035
18.39,-0.0712
18.3925,1.05
18.395,1.02
18.3975,-0.238
18.4,-0.355
18.4025,-0.739
18.405,-0.122
18.4075,-0.632
18.41,0.119
18.4125,-0.278
18.415,0.243
18.4175,-0.24
18.42,0.777
18.4225,-0.23
18.425,0.0818
18.4275,0.464
18.43,-0.24
18.4325,-0.194
18.435,0.474
18.4375,0.103
18.44,-0.854
18.4425,0.483
18.445,-0.614
18.4475,0.461
18.45,-0.0084
18.4525,0.929
18.455,1.03
18.4575,0.501
18.46,-0.976
18.4625,-0.0243
18.465,0.625
18.4675,0.798
18.47,0.532
18.4725,-0.737
18.475,0.566
18.4775,-0.527
18.48,-0.517
18.4825,-0.636
18.485,-0.205
18.4875,-0.237
18.49,-0.0197
18.4925,-0.19
18.495,0.264
18.4975,-0.284
18.5,-0.169
18.5025,0.66
18.505,0.511
18.5075,0.284
18.51,0.337
18.5125,0.0691
18.515,0.313
18.5175,-0.0927
18.52,-0.475
18.5225,1.07
18.525,0.805
18.5275,0.603
18.53,0.0128
18.5325,-0.761
18.535,-0.648
18.5375,-0.694
18.54,0.0775
18.5425,0.773
18.545,-0.794
18.5475,-0.381
18.55,0.864
18.5525,-0.244
18.555,-0.624
18.5575,0.583
18.56,1.01
18.5625,0.432
18.565,1
18.5675,0.571
18.57,-0.331
18.5725,-0.169
18.575,0.682
18.5775,0.479
18.58,-0.418
18.5825,0.465
18.585,-0.0522
18.5875,-0.43
18.59,-0.375
18.5925,0.645
18.595,0.323
18.5975,-0.509
18.6,-0.618
18.6025,0.719
18.605,0.531
18.6075,0.221
18.61,0.293
18.6125,-0.504
18.615,0.389
18.6175,-0.43
18.62,0.206
18.6225,-0.436
18.625,0.108
18.6275,-0.451
18.63,-0.691
18.6325,-0.804
18.635,0.705
18.6375,-0.495
18.64,-0.299
18.6425,-0.225
18.645,-0.45
18.6475,-0.314
18.65,0.5
18.6525,-0.029
18.655,-0.722
18.6575,0.312
18.66,-0.664
18.6625,0.53
18.665,0.468
18.6675,-0.849
18.67,0.631
18.6725,0.437
18.675,-0.395
18.6775,1.08
18.68,-0.056
18.6825,1.12
18.685,0.207
18.6875,0.863
18.69,0.459
18.6925,-0.595
18.695,-0.0966
18.6975,0.798
18.7,-0.173
18.7025,1.1
18.705,0.139
18.7075,-0.431
18.71,-0.505
18.7125,0.195
18.715,0.514
18.7175,-0.619
18.72,0.767
18.7225,-0.494
18.725,-0.332
18.7275,0.584
18.73,0.723
18.7325,0.148
18.735,-0.04
18.7375,0.329
18.74,1.1
18.7425,0.512
18.745,0.286
18.7475,-0.0955
18.75,-0.412
18.7525,-0.522
18.755,-0.501
18.7575,0.0965
18.76,0.469
18.7625,0.504
18.765,0.493
18.7675,-0.111
18.77,1.02
18.7725,-0.646
18.775,-0.0252
18.7775,-0.237
18.78,0.189
18.7825,-0.303
18.785,0.14
18.7875,0.719
18.79,0.29
18.7925,0.889
18.795,-0.553
18.7975,-0.542
18.8,-0.256
18.8025,0.79
18.805,0.55
18.8075,-0.331
18.81,0.668
18.8125,0.334
18.815,1.06
18.8175,0.992
18.82,-1.04
18.8225,0.139
18.825,-0.608
18.8275,0.407
18.83,0.0207
18.8325,0.159
18.835,-0.165
18.8375,0.13
18.84,0.0541
18.8425,0.0259
18.845,0.034
18.8475,0.0376
18.85,0.0577
18.8525,0.0567
18.855,0.11
18.8575,0.0479
18.86,0.125
18.8625,0.0647
18.865,0.076
18.8675,0.137
18.87,0.0541
18.8725,0.11
18.875,0.0344
18.8775,0.0625
18.88,0.0778
18.8825,0.0524
18.885,0.0806
18.8875,0.0611
18.89,0.0538
18.8925,0.0455
18.895,0.0675
18.8975,0.0738
18.9,0.0427
18.9025,0.116
18.905,0.0734
18.9075,0.091
18.91,0.0869
18.9125,0.0329
18.915,0.099
18.9175,0.118
18.92,0.0825
18.9225,0.103
18.925,0.104
18.9275,0.054
18.93,0.0636
18.9325,0.0373
18.935,0.0661
18.9375,0.0588
18.94,0.0936
18.9425,0.0478
18.945,0.0327
18.9475,0.088
18.95,0.114
18.9525,0.0987
18.955,0.0355
18.9575,0.134
18.96,0.0464
18.9625,0.0544
18.965,0.0498
18.9675,0.0812
18.97,0.0517
18.9725,0.0826
18.975,0.086
18.9775,0.0712
18.98,0.0534
18.9825,0.115
18.985,0.0821
18.9875,0.0613
18.99,0.1
18.9925,0.0685
18.995,0.125
18.9975,0.0817
19,0.108
19.0025,0.0591
19.005,0.0798
19.0075,0.0795
19.01,0.107
19.0125,0.104
19.015,0.0754
19.0175,0.116
19.02,0.0958
19.0225,0.0647
19.025,0.118
19.0275,0.0775
19.03,0.0767
19.0325,0.0935
19.035,0.066
19.0375,0.121
19.04,0.102
19.0425,0.0855
19.045,0.0674
19.0475,0.0702
19.05,0.0774
19.0525,0.0712
19.055,0.0895
19.0575,0.0881
19.06,0.118
19.0625,0.0814
19.065,0.125
19.0675,0.0344
19.07,0.0619
19.0725,0.108
19.075,0.0537
19.0775,0.117
19.08,0.105
19.0825,0.0637
19.085,0.0872
19.0875,0.119
19.09,0.0853
19.0925,0.104
19.095,0.0316
19.0975,0.107
19.1,0.105
19.1025,0.0661
19.105,0.0794
19.1075,0.0785
19.11,0.0525
19.1125,0.071
19.115,0.113
19.1175,0.0386
19.12,0.0776
19.1225,0.0493
19.125,0.0991
19.1275,0.113
19.13,0.125
19.1325,0.057
19.135,0.0929
19.1375,0.0932
19.14,0.0442
19.1425,0.115
19.145,0.0723
19.1475,0.0683
19.15,0.028
19.1525,0.105
19.155,0.0553
19.1575,0.115
19.16,0.0487
19.1625,0.122
19.165,0.0296
19.1675,0.0548
19.17,0.0741
19.1725,0.0501
19.175,0.119
19.1775,0.121
19.18,0.0956
19.1825,0.088
19.185,0.0847
19.1875,0.101
19.19,0.0854
19.1925,0.104
19.195,0.0501
19.1975,0.0771
19.2,0.104
19.2025,0.0935
19.205,0.0329
19.2075,0.103
19.21,0.13
19.2125,0.0516
19.215,0.0473
19.2175,0.0418
19.22,0.0425
19.2225,0.0712
19.225,0.0543
19.2275,0.108
19.23,0.037
19.2325,0.0684
19.235,0.132
19.2375,0.0839
19.24,0.121
19.2425,0.0846
19.245,0.0778
19.2475,0.109
19.25,0.0612
19.2525,0.084
19.255,0.0592
19.2575,0.103
19.26,0.0531
19.2625,0.0479
19.265,0.0759
19.2675,0.0653
19.27,0.0782
19.2725,0.146
19.275,0.0769
19.2775,0.114
19.28,0.0368
19.2825,0.121
19.285,0.0555
19.2875,0.0224
19.29,0.109
19.2925,0.0714
19.295,0.0481
19.2975,0.122
19.3,0.0276
19.3025,0.118
19.305,0.039
19.3075,0.0472
19.31,0.0396
19.3125,0.0451
19.315,0.0989
19.3175,0.0962
19.32,0.0753
19.3225,0.054
19.325,0.102
19.3275,0.0239
19.33,0.0457
19.3325,0.084
19.335,0.0591
19.3375,0.0383
19.34,0.104
19.3425,0.0475
19.345,0.0413
19.3475,0.079
19.35,0.104
19.3525,0.0823
19.355,0.122
19.3575,0.0949
19.36,0.053
19.3625,0.0714
19.365,0.0677
19.3675,0.107
19.37,0.0478
19.3725,0.125
19.375,0.0568
19.3775,0.083
19.38,0.098
19.3825,0.0906
19.385,0.0758
19.3875,0.0809
19.39,0.0617
19.3925,0.0429
19.395,0.0782
19.3975,0.0689
19.4,0.122
19.4025,0.0717
19.405,0.11
19.4075,0.0936
19.41,0.0412
19.4125,0.0622
19.415,0.0946
19.4175,0.0484
19.42,0.0584
19.4225,0.0566
19.425,0.101
19.4275,0.0602
19.43,0.11
19.4325,0.0945
19.435,0.0687
19.4375,0.0548
19.44,0.0579
19.4425,0.0273
19.445,0.13
19.4475,0.0374
19.45,0.0976
19.4525,0.0505
19.455,0.106
19.4575,0.0839
19.46,0.0899
19.4625,0.0617
19.465,0.0082
19.4675,0.0515
19.47,0.109
19.4725,0.051
19.475,0.114
19.4775,0.103
19.48,0.0957
19.4825,0.0311
19.485,0.0715
19.4875,0.101
19.49,0.0897
19.4925,0.0733
19.495,0.0672
19.4975,0.0907
19.5,0.0388
19.5025,0.118
19.505,0.112
19.5075,0.0427
19.51,0.0947
19.5125,0.0415
19.515,0.074
19.5175,0.0785
19.52,0.0944
19.5225,0.0363
19.525,0.041
19.5275,0.112
19.53,0.12
19.5325,0.0979
19.535,0.0453
19.5375,0.0183
19.54,0.103
19.5425,0.136
19.545,0.0756
19.5475,0.0798
19.55,0.0569
19.5525,0.0806
19.555,0.0833
19.5575,0.111
19.56,0.123
19.5625,0.0535
19.565,0.0937
19.5675,-0.0782
19.57,0.0927
19.5725,0.845
19.575,1.07
19.5775,-0.555
19.58,-0.387
19.5825,-0.184
19.585,-0.24
19.5875,0.0029
19.59,0.88
19.5925,0.498
19.595,-0.442
19.5975,-0.325
19.6,1.07
19.6025,0.256
19.605,-0.826
19.6075,0.619
19.61,-0.593
19.6125,1.08
19.615,0.746
19.6175,-0.6
19.62,0.0879
19.6225,-0.0908
19.625,-0.154
19.6275,0.207
19.63,-0.0381
19.6325,0.259
19.635,-0.145
19.6375,-0.83
19.64,0.985
19.6425,-0.105
19.645,0.94
19.6475,-0.367
19.65,-0.881
19.6525,-0.683
19.655,0.124
19.6575,1.07
19.66,-0.289
19.6625,-0.646
19.665,-0.717
19.6675,-0.168
19.67,0.291
19.6725,-0.306
19.675,-0.666
19.6775,-0.815
19.68,-0.55
19.6825,-0.643
19.685,0.964
19.6875,0.286
19.69,0.448
19.6925,-0.345
19.695,0.742
19.6975,0.0907
19.7,-0.218
19.7025,0.274
19.705,0.505
19.7075,0.385
19.71,-0.713
19.7125,0.978
19.715,0.627
19.7175,-0.499
19.72,-0.002
19.7225,0.985
19.725,0.672
19.7275,0.481
19.73,-0.495
19.7325,0.448
19.735,1.04
19.7375,0.583
19.74,-0.442
19.7425,0.963
19.745,0.516
19.7475,0.233
19.75,-0.214
19.7525,-0.103
19.755,0.679
19.7575,0.448
19.76,-0.76
19.7625,0.524
19.765,0.667
19.7675,-1.05
19.77,0.107
19.7725,-0.0465
19.775,0.317
19.7775,0.192
19.78,0.202
19.7825,-0.475
19.785,-0.695
19.7875,-0.0352
19.79,-0.789
19.7925,0.74
19.795,0.295
19.7975,0.513
19.8,-0.07
19.8025,1.22
19.805,-0.759
19.8075,-0.899
19.81,0.753
19.8125,0.358
19.815,-0.385
19.8175,1.08
19.82,-0.171
19.8225,0.339
19.825,0.383
19.8275,0.565
19.83,-0.864
19.8325,0.221
19.835,-0.0936
19.8375,0.42
19.84,0.208
19.8425,-0.672
19.845,-0.63
19.8475,0.421
19.85,0.727
19.8525,0.919
19.855,-0.712
19.8575,0.493
19.86,-0.693
19.8625,-0.514
19.865,0.956
19.8675,-0.457
19.87,-0.802
19.8725,-0.583
19.875,0.222
19.8775,0.194
19.88,0.522
19.8825,0.0784
19.885,0.0358
19.8875,0.861
19.89,0.819
19.8925,0.722
19.895,-0.0668
19.8975,-0.918
19.9,-0.466
19.9025,0.882
19.905,-0.182
19.9075,0.836
19.91,0.831
19.9125,-0.305
19.915,-0.293
19.9175,-0.554
19.92,0.147
19.9225,0.807
19.925,0.498
19.9275,-0.634
19.93,0.0108
19.9325,-0.215
19.935,0.566
19.9375,0.83
19.94,0.884
19.9425,-0.61
19.945,-0.639
19.9475,-0.168
19.95,-0.551
19.9525,-0.362
19.955,-0.0795
19.9575,0.55
19.96,-0.562
19.9625,-0.855
19.965,-0.676
19.9675,0.22
19.97,-0.943
19.9725,0.0768
19.975,0.11
19.9775,-0.863
19.98,-0.742
19.9825,0.671
19.985,0.261
19.9875,-0.527
19.99,-0.136
19.9925,-0.582
19.995,-0.628
19.9975,0.719
20,0.993
20.0025,0.814
20.005,0.288
20.0075,-0.371
20.01,-0.114
20.0125,0.0307
20.015,-0.43
20.0175,-0.259
20.02,-0.0651
20.0225,0.55
20.025,-0.0768
20.0275,-0.696
20.03,-0.819
20.0325,-0.581
20.035,-0.696
20.0375,-0.246
20.04,0.381
20.0425,0.093
20.045,0.634
20.0475,-0.145
20.05,-0.403
20.0525,0.197
20.055,-0.291
20.0575,0.133
20.06,0.697
20.0625,-0.475
20.065,0.249
20.0675,0.379
20.07,0.0981
20.0725,0.488
20.075,0.187
20.0775,0.799
20.08,0.401
20.0825,-0.0731
20.085,0.109
20.0875,-0.598
20.09,0.203
20.0925,0.59
20.095,-0.0885
20.0975,0.176
20.1,-0.137
20.1025,0.137
20.105,0.153
20.1075,1.02
20.11,1.05
20.1125,0.513
20.115,-0.58
20.1175,-0.666
20.12,0.0858
20.1225,-0.802
20.125,-0.424
20.1275,-0.934
20.13,-0.893
20.1325,-0.99
20.135,0.403
20.1375,0.463
20.14,0.376
20.1425,-0.435
20.145,-0.792
20.1475,0.959
20.15,0.137
20.1525,-0.0751
20.155,1.12
20.1575,0.0781
20.16,-0.891
20.1625,-0.397
20.165,0.257
20.1675,0.751
20.17,-0.0181
20.1725,-0.853
20.175,0.507
20.1775,0.0138
20.18,-0.129
20.1825,-0.656
20.185,-0.373
20.1875,0.226
20.19,0.584
20.1925,0.308
20.195,-0.267
20.1975,0.233
20.2,-0.465
20.2025,-0.012
20.205,0
20.2075,-0.164
20.21,0.0399
20.2125,0.0794
20.215,0.101
20.2175,0.0898
20.22,0.0965
20.2225,0.12
20.225,0.113
20.2275,0.0697
20.23,0.0346
20.2325,0.0726
20.235,0.0407
20.2375,0.0587
20.24,0.0776
20.2425,0.0579
20.245,0.107
20.2475,0.0913
20.25,0.0907
20.2525,0.117
20.255,0.0612
20.2575,0.121
20.26,0.065
20.2625,0.0662
20.265,0.0919
20.2675,0.118
20.27,0.0437
20.2725,0.0706
20.275,0.102
20.2775,0.101
20.28,0.0853
20.2825,0.0719
20.285,0.0762
20.2875,0.113
20.29,0.0654
20.2925,0.0445
20.295,0.0817
20.2975,0.0601
20.3,0.0862
20.3025,0.0501
20.305,0.0931
20.3075,0.0547
20.31,0.0494
20.3125,0.0507
20.315,0.0763
20.3175,0.103
20.32,0.0751
20.3225,0.0732
20.325,0.0248
20.3275,0.113
20.33,0.0548
20.3325,0.113
20.335,0.0368
20.3375,0.055
20.34,0.0934
20.3425,0.084
20.345,0.131
20.3475,0.0679
20.35,0.0737
20.3525,0.0599
20.355,0.036
20.3575,0.0895
20.36,0.0616
20.3625,0.0611
20.365,0.0764
20.3675,0.0738
20.37,0.0645
20.3725,0.11
20.375,0.0835
20.3775,0.0492
20.38,0.135
20.3825,0.11
20.385,0.0794
20.3875,0.126
20.39,0.078
20.3925,0.0716
20.395,0.0325
20.3975,0.0587
20.4,0.0437
20.4025,0.0718
20.405,0.0719
20.4075,0.0717
20.41,0.0511
20.4125,0.107
20.415,0.0989
20.4175,0.0753
20.42,0.0296
20.4225,0.0623
20.425,0.0799
20.4275,0.0473
20.43,0.082
20.4325,0.0393
20.435,0.0549
20.4375,0.0734
20.44,0.0925
20.4425,0.11
20.445,0.111
20.4475,0.0904
20.45,0.0449
20.4525,0.0356
20.455,0.0992
20.4575,0.0781
20.46,0.0374
20.4625,0.0815
20.465,0.06
20.4675,0.125
20.47,0.07
20.4725,0.0981
20.475,0.0412
20.4775,0.0505
20.48,0.0983
20.4825,0.0366
20.485,0.0617
20.4875,0.0342
20.49,0.0942
20.4925,0.0705
20.495,0.106
20.4975,0.105
20.5,0.132
20.5025,0.0501
20.505,0.117
20.5075,0.1
20.51,0.0572
20.5125,0.0496
20.515,0.0799
20.5175,0.0377
20.52,0.124
20.5225,0.113
20.525,0.0471
20.5275,0.0648
20.53,0.0779
20.5325,0.0952
20.535,0.0671
20.5375,0.0913
20.54,0.0489
20.5425,0.0648
20.545,0.0353
20.5475,0.088
20.55,0.032
20.5525,0.0734
20.555,0.0577
20.5575,0.0345
20.56,0.0517
20.5625,0.0641
20.565,0.119
20.5675,0.067
20.57,0.0933
20.5725,0.158
20.575,0.701
20.5775,0.731
20.58,-0.143
20.5825,0.842
20.585,0.719
20.5875,0.963
20.59,0.757
20.5925,-0.718
20.595,-0.898
20.5975,-0.36
20.6,0.113
20.6025,-0.0218
20.605,-0.431
20.6075,0.829
20.61,-0.187
20.6125,1.04
20.615,0.546
20.6175,-0.339
20.62,-1.08
20.6225,0.443
20.625,-0.363
20.6275,0.372
20.63,0.46
20.6325,0.298
20.635,-0.573
20.6375,-0.577
20.64,0.986
20.6425,0.492
20.645,-0.543
20.6475,-0.734
20.65,0.438
20.6525,0.494
20.655,-0.0003
20.6575,-0.331
20.66,-0.411
20.6625,0.425
20.665,0.0834
20.6675,0.41
20.67,0.755
20.6725,0.67
20.675,-0.71
20.6775,0.548
20.68,0.448
20.6825,0.758
20.685,0.3
20.6875,0.602
20.69,0.614
20.6925,0.291
20.695,-0.787
20.6975,-0.821
20.7,0.777
20.7025,-1.03
20.705,0.555
20.7075,0.565
20.71,0.802
20.7125,0.636
20.715,-0.775
20.7175,0.378
20.72,-0.0891
20.7225,-0.87
20.725,0.0366
20.7275,0.747
20.73,0.493
20.7325,0.65
20.735,-0.849
20.7375,-0.198
20.74,-0.103
20.7425,-1.01
20.745,0.211
20.7475,0.578
20.75,-0.532
20.7525,0.307
20.755,-0.537
20.7575,-0.582
20.76,-0.205
20.7625,-0.648
20.765,-0.22
20.7675,0.39
20.77,0.505
20.7725,0.905
20.775,0.362
20.7775,-0.859
20.78,-0.398
20.7825,0.407
20.785,0.563
20.7875,0.758
20.79,-0.987
20.7925,0.811
20.795,-0.316
20.7975,0.933
20.8,0.0441
20.8025,-0.38
20.805,0.223
20.8075,0.195
20.81,0.851
20.8125,-0.497
20.815,-0.0809
20.8175,0.549
20.82,0.0096
20.8225,-0.215
20.825,0.0905
20.8275,-0.428
20.83,-0.57
20.8325,-0.0068
20.835,0.785
20.8375,-0.712
20.84,-0.961
20.8425,-0.154
20.845,1.4
20.8475,0.396
20.85,0.159
20.8525,-0.174
20.855,1
20.8575,0.821
20.86,0.962
20.8625,0.728
20.865,0.777
20.8675,0.128
20.87,1.07
20.8725,-0.0049
20.875,0.714
20.8775,0.503
20.88,-0.017
20.8825,-0.893
20.885,0.439
20.8875,-0.24
20.89,0.451
20.8925,0.516
20.895,-0.654
20.8975,0.226
20.9,0.593
20.9025,-0.572
20.905,-0.324
20.9075,-0.277
20.91,-0.371
20.9125,-0.31
20.915,-0.135
20.9175,-0.227
20.92,-0.175
20.9225,0.23
20.925,0.791
20.9275,0.534
20.93,-0.0099
20.9325,-0.339
20.935,-0.0658
20.9375,-0.0062
20.94,0.924
20.9425,0.0678
20.945,-0.353
20.9475,0.117
20.95,0.248
20.9525,-0.983
20.955,-0.473
20.9575,-0.647
20.96,-0.753
20.9625,-0.434
20.965,0.185
20.9675,1.03
20.97,0.288
20.9725,-0.0783
20.975,-0.228
20.9775,-0.0735
20.98,-0.446
20.9825,0.702
20.985,0.201
20.9875,0.764
20.99,-0.351
20.9925,0.787
20.995,-0.0872
20.9975,0.294
21,0.447
21.0025,0.154
21.005,0.361
21.0075,-0.299
21.01,0.389
21.0125,0.845
21.015,-0.571
21.0175,-0.172
21.02,0.861
21.0225,-0.333
21.025,0.0458
21.0275,-0.135
21.03,-0.671
21.0325,0.964
21.035,-0.551
21.0375,-0.834
21.04,0.25
21.0425,-0.0597
21.045,-0.527
21.0475,0.563
21.05,0.184
21.0525,-0.205
21.055,-0.846
21.0575,0.769
21.06,0.288
21.0625,-0.695
21.065,-0.163
21.0675,0.88
21.07,0.419
21.0725,-0.761
21.075,0.362
21.0775,-0.55
21.08,0.354
21.0825,0.0178
21.085,-0.228
21.0875,-0.358
21.09,-0.596
21.0925,0.542
21.095,1.01
21.0975,-0.135
21.1,0.636
21.1025,0.508
21.105,0.682
21.1075,0.634
21.11,0.417
21.1125,-0.0057
21.115,-0.711
21.1175,-0.243
21.12,0.843
21.1225,0.733
21.125,-0.515
21.1275,-0.544
21.13,0.894
21.1325,0.716
21.135,-0.197
21.1375,0.616
21.14,-0.168
21.1425,0.755
21.145,-0.523
21.1475,-0.546
21.15,-0.942
21.1525,-0.466
21.155,-0.525
21.1575,0.198
21.16,0.57
21.1625,-0.262
21.165,0.195
21.1675,0.0626
21.17,0.238
21.1725,-0.344
21.175,-0.787
21.1775,0.672
21.18,-0.38
21.1825,0.0928
21.185,0.606
21.1875,-0.0808
21.19,-0.127
21.1925,-0.114
21.195,0.616
21.1975,0.892
21.2,0.665
21.2025,0.0405
21.205,0.149
21.2075,-0.522
21.21,0.436
21.2125,-0.54
21.215,0.125
21.2175,0.0904
21.22,0.139
21.2225,0.0937
21.225,0.088
21.2275,0.115
21.23,0.0438
21.2325,0.0754
21.235,0.135
21.2375,0.0623
21.24,0.0574
21.2425,0.0663
21.245,0.0784
21.2475,0.0746
21.25,0.104
21.2525,0.0352
21.255,0.0793
21.2575,0.0177
21.26,0.0767
21.2625,0.128
21.265,0.0555
21.2675,0.0632
21.27,0.0504
21.2725,0.0659
21.275,0.0816
21.2775,0.0472
21.28,0.0915
21.2825,0.123
21.285,0.0732
21.2875,0.0853
21.29,0.0948
21.2925,0.0318
21.295,0.0689
21.2975,0.0475
21.3,0.0594
21.3025,0.0426
21.305,0.0884
21.3075,0.106
21.31,0.0875
21.3125,0.0702
21.315,0.0593
21.3175,0.0887
21.32,0.0702
21.3225,0.0722
21.325,0.055
21.3275,0.0492
21.33,0.03
21.3325,0.0431
21.335,0.141
21.3375,0.0282
21.34,0.124
21.3425,0.0734
21.345,0.0833
21.3475,0.0533
21.35,0.116
21.3525,0.121
21.355,0.112
21.3575,0.0915
21.36,0.0939
21.3625,0.0372
21.365,0.0516
21.3675,0.0936
21.37,0.117
21.3725,0.0512
21.375,0.0549
21.3775,0.0831
21.38,0.0768
21.3825,0.113
21.385,0.068
21.3875,0.078
21.39,0.0551
21.3925,0.063
21.395,0.0563
21.3975,0.0643
21.4,0.0241
21.4025,0.0519
21.405,0.0208
21.4075,0.101
21.41,0.0419
21.4125,0.0922
21.415,0.0757
21.4175,0.0705
21.42,0.0641
21.4225,0.0661
21.425,0.107
21.4275,0.0587
21.43,0.0423
21.4325,0.0864
21.435,0.0906
21.4375,0.0736
21.44,0.0588
21.4425,0.089
21.445,0.0655
21.4475,0.0851
21.45,0.0548
21.4525,0.0769
21.455,0.0376
21.4575,0.0803
21.46,0.0887
21.4625,0.0481
21.465,0.103
21.4675,0.0635
21.47,0.118
21.4725,0.0855
21.475,0.0766
21.4775,0.107
21.48,0.106
21.4825,0.063
21.485,0.092
21.4875,0.0862
21.49,0.0295
21.4925,0.131
21.495,0.0467
21.4975,0.0807
21.5,0.0484
21.5025,0.0387
21.505,0.106
21.5075,0.0548
21.51,0.08
21.5125,0.067
21.515,0.0347
21.5175,0.127
21.52,0.08
21.5225,0.0897
21.525,0.115
21.5275,0.108
21.53,0.0927
21.5325,0.0603
21.535,0.0691
21.5375,0.0829
21.54,0.06
21.5425,0.108
21.545,0.0403
21.5475,0.0557
21.55,0.108
21.5525,0.0894
21.555,0.114
21.5575,0.106
21.56,0.0353
21.5625,0.0422
21.565,0.0951
21.5675,0.0906
21.57,0.0803
21.5725,0.0684
21.575,0.0938
21.5775,0.0676
21.58,0.786
21.5825,0.0719
21.585,-0.375
21.5875,-0.399
21.59,0.171
21.5925,0.494
21.595,-0.328
21.5975,0.336
21.6,1.05
21.6025,-0.628
21.605,0.282
21.6075,0.804
21.61,-0.609
21.6125,0.309
21.615,-0.129
21.6175,-0.6
21.62,-0.409
21.6225,-0.594
21.625,-0.413
21.6275,-0.463
21.63,-0.788
21.6325,0.257
21.635,0.834
21.6375,-0.107
21.64,0.565
21.6425,0.298
21.645,0.787
21.6475,0.447
21.65,-0.525
21.6525,-0.647
21.655,0.843
21.6575,-0.0505
21.66,-0.566
21.6625,-0.945
21.665,1
21.6675,0.0138
21.67,0.196
21.6725,-0.161
21.675,-0.47
21.6775,-0.788
21.68,0.0063
21.6825,-0.213
21.685,0.567
21.6875,0.386
21.69,-0.182
21.6925,0.559
21.695,-0.723
21.6975,0.97
21.7,0.0621
21.7025,0.0002
21.705,0.834
21.7075,-0.716
21.71,0.974
21.7125,0.726
21.715,0.518
21.7175,-0.0945
21.72,0.546
21.7225,-0.489
21.725,-0.529
21.7275,1.07
21.73,0.719
21.7325,0.61
21.735,0.788
21.7375,0.399
21.74,0.533
21.7425,0.106
21.745,0.457
21.7475,0.0301
21.75,0.0474
21.7525,-0.0076
21.755,0.283
21.7575,-0.847
21.76,-0.853
21.7625,-0.225
21.765,-0.234
21.7675,-1.02
21.77,-0.475
21.7725,-0.314
21.775,-0.131
21.7775,0.443
21.78,0.611
21.7825,-0.119
21.785,0.212
21.7875,0.682
21.79,-0.425
21.7925,-0.587
21.795,-0.591
21.7975,-0.905
21.8,0.436
21.8025,-0.544
21.805,0.942
21.8075,-0.749
21.81,-0.0703
21.8125,-0.917
21.815,0.552
21.8175,-0.0625
21.82,0.581
21.8225,0.735
21.825,0.129
21.8275,0.514
21.83,-0.396
21.8325,-0.766
21.835,-0.438
21.8375,0.504
21.84,1.05
21.8425,0.0605
21.845,0.0241
21.8475,-0.401
21.85,-0.502
21.8525,0.26
21.855,1.14
21.8575,-0.286
21.86,-0.486
21.8625,0.62
21.865,-0.575
21.8675,1.03
21.87,-0.621
21.8725,-0.189
21.875,0.176
21.8775,-0.662
21.88,0.325
21.8825,0.617
21.885,-0.302
21.8875,0.526
21.89,0.0577
21.8925,-0.408
21.895,0.0995
21.8975,1.12
21.9,0.178
21.9025,0.537
21.905,-0.414
21.9075,0.149
21.91,0.376
21.9125,-0.657
21.915,-0.629
21.9175,1.17
21.92,-0.845
21.9225,-0.634
21.925,0.576
21.9275,-0.0506
21.93,-0.682
21.9325,1.25
21.935,-0.179
21.9375,0.75
21.94,-0.0921
21.9425,0.892
21.945,-0.312
21.9475,1.03
21.95,-0.687
21.9525,0.173
21.955,-0.24
21.9575,0.32
21.96,0.155
21.9625,-0.073
21.965,-0.755
21.9675,0.041
21.97,-1.07
21.9725,-0.689
21.975,-0.296
21.9775,0.902
21.98,0.191
21.9825,0.63
21.985,0.437
21.9875,0.855
21.99,0.788
21.9925,0.844
21.995,-0.482
21.9975,0.619
22,-0.501
22.0025,-0.481
22.005,-0.698
22.0075,0.288
22.01,0.501
22.0125,-0.921
22.015,0.0158
22.0175,-0.907
22.02,-0.1
22.0225,0.349
22.025,-0.278
22.0275,1.02
22.03,0.763
22.0325,-0.509
22.035,-0.0984
22.0375,0.795
22.04,0.929
22.0425,-0.153
22.045,-0.309
22.0475,-0.438
22.05,0.93
22.0525,-0.172
22.055,0.337
22.0575,0.59
22.06,-0.217
22.0625,-0.26
22.065,-0.729
22.0675,-0.612
22.07,-0.312
22.0725,0.0661
22.075,-0.249
22.0775,-0.612
22.08,0.669
22.0825,-0.521
22.085,1.01
22.0875,0.351
22.09,-0.17
22.0925,1.12
22.095,-0.105
22.0975,-0.273
22.1,0.457
22.1025,-0.834
22.105,0.357
22.1075,0.5
22.11,-0.0295
22.1125,-0.204
22.115,0.226
22.1175,0.829
22.12,0.387
22.1225,0.0514
22.125,0.449
22.1275,-0.831
22.13,-0.267
22.1325,0.229
22.135,-0.226
22.1375,-0.0635
22.14,-0.479
22.1425,0.667
22.145,0.408
22.1475,0.927
22.15,0.632
22.1525,-0.137
22.155,-0.305
22.1575,-0.0501
22.16,-0.28
22.1625,0.459
22.165,0.545
22.1675,-0.337
22.17,-0.503
22.1725,0.889
22.175,-0.239
22.1775,-0.176
22.18,-0.994
22.1825,0.7
22.185,0.029
22.1875,0.491
22.19,0.517
22.1925,0.607
22.195,0.749
22.1975,0.232
22.2,-0.531
22.2025,-0.739
22.205,0.951
22.2075,0.692
22.21,-0.873
22.2125,-0.534
22.215,-0.666
22.2175,-0.397
22.22,0.106
22.2225,0.11
22.225,0.0577
22.2275,0.0387
22.23,0.068
22.2325,0.0522
22.235,0.103
22.2375,0.109
22.24,0.0489
22.2425,0.0479
22.245,0.0734
22.2475,0.111
22.25,0.0552
22.2525,0.0681
22.255,0.102
22.2575,0.0743
22.26,0.113
22.2625,0.0455
22.265,0.0662
22.2675,0.0956
22.27,0.0969
22.2725,0.0696
22.275,0.0211
22.2775,0.0306
22.28,0.0321
22.2825,0.0442
22.285,0.0717
22.2875,0.059
22.29,0.0801
22.2925,0.0856
22.295,0.062
22.2975,0.0806
22.3,0.0868
22.3025,0.103
22.305,0.0622
22.3075,0.102
22.31,0.0815
22.3125,0.0438
22.315,0.0816
22.3175,0.063
22.32,0.0507
22.3225,0.0702
22.325,0.0303
22.3275,0.119
22.33,0.0603
22.3325,0.0622
22.335,0.112
22.3375,0.0773
22.34,0.0936
22.3425,0.0243
22.345,0.117
22.3475,0.0262
22.35,0.0385
22.3525,0.0531
22.355,0.088
22.3575,0.0847
22.36,0.0485
22.3625,0.0687
22.365,0.0994
22.3675,0.0442
22.37,0.0806
22.3725,0.0418
22.375,0.12
22.3775,0.0833
22.38,0.048
22.3825,0.101
22.385,0.0945
22.3875,0.114
22.39,0.0265
22.3925,0.1
22.395,0.109
22.3975,0.0699
22.4,0.0478
22.4025,0.0886
22.405,0.101
22.4075,0.0779
22.41,0.0815
22.4125,0.0799
22.415,0.104
22.4175,0.0495
22.42,0.0457
22.4225,0.0998
22.425,0.0336
22.4275,0.122
22.43,0.0989
22.4325,0.0386
22.435,0.0627
22.4375,0.085
22.44,0.0697
22.4425,0.0864
22.445,0.1
22.4475,0.0682
22.45,0.114
22.4525,0.0754
22.455,0.0519
22.4575,0.117
22.46,0.141
22.4625,0.0925
22.465,0.0648
22.4675,0.105
22.47,0.082
22.4725,0.0993
22.475,0.092
22.4775,0.0432
22.48,0.0974
22.4825,0.0401
22.485,0.071
22.4875,0.0985
22.49,0.123
22.4925,0.0837
22.495,0.0587
22.4975,0.0468
22.5,0.0456
22.5025,0.106
22.505,0.128
22.5075,0.0664
22.51,0.0704
22.5125,0.0796
22.515,0.0672
22.5175,0.0342
22.52,0.119
22.5225,0.117
22.525,0.0607
22.5275,0.0717
22.53,0.0326
22.5325,0.0765
22.535,0.0395
22.5375,0.109
22.54,0.0755
22.5425,0.0931
22.545,0.0977
22.5475,0.0572
22.55,0.0571
22.5525,0.0586
22.555,0.0855
22.5575,0.0371
22.56,0.0656
22.5625,0.112
22.565,0.033
22.5675,0.112
22.57,0.0937
22.5725,0.0737
22.575,0.0847
22.5775,0.0889
22.58,0.0579
