0.0025,1.11
0.005,1.05
0.0075,0.92
0.01,0.728
0.0125,0.507
0.015,0.282
0.0175,0.0797
0.02,-0.0847
0.0225,-0.206
0.025,-0.283
0.0275,-0.318
0.03,-0.316
0.0325,-0.289
0.035,-0.247
0.0375,-0.2
0.04,-0.154
0.0425,-0.115
0.045,-0.0853
0.0475,-0.0649
0.05,-0.0524
0.0525,-0.0441
0.055,-0.0381
0.0575,-0.0337
0.06,-0.0301
0.0625,-0.0267
0.065,-0.0231
0.0675,-0.019
0.07,-0.0142
0.0725,-0.0088
0.075,-0.0029
0.0775,0.0036
0.08,0.0109
0.0825,0.0189
0.085,0.0278
0.0875,0.0375
0.09,0.0481
0.0925,0.0596
0.095,0.072
0.0975,0.0853
0.1,0.0994
0.1025,0.114
0.105,0.13
0.1075,0.147
0.11,0.165
0.1125,0.183
0.115,0.202
0.1175,0.221
0.12,0.24
0.1225,0.259
0.125,0.277
0.1275,0.295
0.13,0.313
0.1325,0.329
0.135,0.345
0.1375,0.36
0.14,0.373
0.1425,0.385
0.145,0.395
0.1475,0.404
0.15,0.411
0.1525,0.416
0.155,0.42
0.1575,0.421
0.16,0.42
0.1625,0.416
0.165,0.41
0.1675,0.402
0.17,0.393
0.1725,0.381
0.175,0.368
0.1775,0.353
0.18,0.338
0.1825,0.321
0.185,0.304
0.1875,0.286
0.19,0.267
0.1925,0.248
0.195,0.229
0.1975,0.211
0.2,0.192
0.2025,0.173
0.205,0.155
0.2075,0.138
0.21,0.121
0.2125,0.104
0.215,0.0889
0.2175,0.0744
0.22,0.0608
0.2225,0.0482
0.225,0.0367
0.2275,0.0263
0.23,0.0169
0.2325,0.0085
0.235,0.0009
0.2375,-0.0059
0.24,-0.0119
0.2425,-0.0171
0.245,-0.0217
0.2475,-0.0257
0.25,-0.0291
0.2525,-0.032
0.255,-0.0344
0.2575,-0.0363
0.26,-0.0378
0.2625,-0.039
0.265,-0.0398
0.2675,-0.0404
0.27,-0.0407
0.2725,-0.0408
0.275,-0.0407
0.2775,-0.0404
0.28,-0.04
0.2825,-0.0395
0.285,-0.0389
0.2875,-0.0383
0.29,-0.0376
0.2925,-0.0368
0.295,-0.036
0.2975,-0.0352
0.3,-0.0343
0.3025,-0.0334
0.305,-0.0325
0.3075,-0.0315
0.31,-0.0306
0.3125,-0.0296
0.315,-0.0286
0.3175,-0.0277
0.32,-0.0267
0.3225,-0.0257
0.325,-0.0248
0.3275,-0.0238
0.33,-0.0228
0.3325,-0.0218
0.335,-0.0209
0.3375,-0.0199
0.34,-0.0189
0.3425,-0.0179
0.345,-0.0168
0.3475,-0.0158
0.35,-0.0147
0.3525,-0.0136
0.355,-0.0125
0.3575,-0.0113
0.36,-0.0099
0.3625,-0.0083
0.365,-0.0064
0.3675,-0.004
0.37,-0.0013
0.3725,0.0021
0.375,0.0061
0.3775,0.0108
0.38,0.0164
0.3825,0.0228
0.385,0.0304
0.3875,0.039
0.39,0.0489
0.3925,0.0602
0.395,0.073
0.3975,0.0875
0.4,0.104
0.4025,0.122
0.405,0.141
0.4075,0.161
0.41,0.18
0.4125,0.199
0.415,0.217
0.4175,0.234
0.42,0.249
0.4225,0.262
0.425,0.272
0.4275,0.28
0.43,0.286
0.4325,0.288
0.435,0.288
0.4375,0.284
0.44,0.278
0.4425,0.268
0.445,0.255
0.4475,0.239
0.45,0.222
0.4525,0.204
0.455,0.185
0.4575,0.166
0.46,0.148
0.4625,0.129
0.465,0.112
0.4675,0.0962
0.47,0.0815
0.4725,0.0682
0.475,0.0565
0.4775,0.0464
0.48,0.0377
0.4825,0.0308
0.485,0.0254
0.4875,0.0206
0.49,0.0156
0.4925,0.0097
0.495,0.0021
0.4975,-0.0079
0.5,-0.021
0.5025,-0.038
0.505,-0.0595
0.5075,-0.0863
0.51,-0.12
0.5125,-0.15
0.515,-0.166
0.5175,-0.158
0.52,-0.119
0.5225,-0.0452
0.525,0.0652
0.5275,0.211
0.53,0.389
0.5325,0.593
0.535,0.807
0.5375,0.994
0.54,1.12
0.5425,1.17
0.545,1.13
0.5475,1
0.55,0.817
0.5525,0.596
0.555,0.372
0.5575,0.168
0.56,-0.0011
0.5625,-0.126
0.565,-0.204
0.5675,-0.236
0.57,-0.235
0.5725,-0.211
0.575,-0.174
0.5775,-0.13
0.58,-0.0866
0.5825,-0.0477
0.585,-0.0164
0.5875,0.0055
0.59,0.0198
0.5925,0.0291
0.595,0.0351
0.5975,0.0391
0.6,0.0422
0.6025,0.0452
0.605,0.0486
0.6075,0.0526
0.61,0.0571
0.6125,0.062
0.615,0.0673
0.6175,0.0733
0.62,0.08
0.6225,0.0875
0.625,0.0958
0.6275,0.105
0.63,0.115
0.6325,0.126
0.635,0.137
0.6375,0.15
0.64,0.164
0.6425,0.178
0.645,0.194
0.6475,0.21
0.65,0.227
0.6525,0.244
0.655,0.262
0.6575,0.281
0.66,0.299
0.6625,0.318
0.665,0.336
0.6675,0.354
0.67,0.371
0.6725,0.388
0.675,0.404
0.6775,0.42
0.68,0.433
0.6825,0.446
0.685,0.457
0.6875,0.466
0.69,0.474
0.6925,0.479
0.695,0.482
0.6975,0.483
0.7,0.482
0.7025,0.479
0.705,0.474
0.7075,0.467
0.71,0.458
0.7125,0.447
0.715,0.435
0.7175,0.421
0.72,0.406
0.7225,0.389
0.725,0.372
0.7275,0.354
0.73,0.335
0.7325,0.315
0.735,0.296
0.7375,0.276
0.74,0.257
0.7425,0.239
0.745,0.22
0.7475,0.203
0.75,0.186
0.7525,0.17
0.755,0.154
0.7575,0.14
0.76,0.127
0.7625,0.114
0.765,0.103
0.7675,0.0921
0.77,0.0827
0.7725,0.0741
0.775,0.0666
0.7775,0.0599
0.78,0.054
0.7825,0.0489
0.785,0.0445
0.7875,0.0406
0.79,0.0374
0.7925,0.0346
0.795,0.0323
0.7975,0.0304
0.8,0.0289
0.8025,0.0277
0.805,0.0268
0.8075,0.0261
0.81,0.0256
0.8125,0.0253
0.815,0.0251
0.8175,0.0251
0.82,0.0251
0.8225,0.0251
0.825,0.0253
0.8275,0.0254
0.83,0.0255
0.8325,0.0257
0.835,0.0258
0.8375,0.026
0.84,0.0261
0.8425,0.0262
0.845,0.0262
0.8475,0.0263
0.85,0.0263
0.8525,0.0262
0.855,0.0261
0.8575,0.026
0.86,0.0259
0.8625,0.0258
0.865,0.0256
0.8675,0.0255
0.87,0.0254
0.8725,0.0252
0.875,0.0251
0.8775,0.0251
0.88,0.0251
0.8825,0.0252
0.885,0.0253
0.8875,0.0256
0.89,0.0259
0.8925,0.0265
0.895,0.0271
0.8975,0.028
0.9,0.029
0.9025,0.0302
0.905,0.0319
0.9075,0.034
0.91,0.0367
0.9125,0.0401
0.915,0.0442
0.9175,0.0492
0.92,0.0552
0.9225,0.0623
0.925,0.0705
0.9275,0.0799
0.93,0.0907
0.9325,0.103
0.935,0.116
0.9375,0.132
0.94,0.149
0.9425,0.167
0.945,0.187
0.9475,0.206
0.95,0.226
0.9525,0.246
0.955,0.265
0.9575,0.283
0.96,0.299
0.9625,0.313
0.965,0.325
0.9675,0.335
0.97,0.342
0.9725,0.345
0.975,0.345
0.9775,0.341
0.98,0.333
0.9825,0.322
0.985,0.309
0.9875,0.293
0.99,0.276
0.9925,0.258
0.995,0.239
0.9975,0.221
1,0.202
1.0025,0.184
1.005,0.167
1.0075,0.15
1.01,0.135
1.0125,0.122
1.015,0.109
1.0175,0.0985
1.02,0.0893
1.0225,0.0822
1.025,0.0785
1.0275,0.0758
1.03,0.0719
1.0325,0.0653
1.035,0.0549
1.0375,0.0403
1.04,0.0212
1.0425,-0.0017
1.045,-0.0275
1.0475,-0.0546
1.05,-0.0811
1.0525,-0.104
1.055,-0.121
1.0575,-0.119
1.06,-0.086
1.0625,-0.0148
1.065,0.0976
1.0675,0.249
1.07,0.433
1.0725,0.638
1.075,0.846
1.0775,1.03
1.08,1.15
1.0825,1.2
1.085,1.15
1.0875,1.02
1.09,0.832
1.0925,0.611
1.095,0.385
1.0975,0.177
1.1,0.0018
1.1025,-0.131
1.105,-0.218
1.1075,-0.263
1.11,-0.27
1.1125,-0.248
1.115,-0.211
1.1175,-0.165
1.12,-0.12
1.1225,-0.0793
1.125,-0.0464
1.1275,-0.0222
1.13,-0.0054
1.1325,0.0071
1.135,0.0164
1.1375,0.0232
1.14,0.0282
1.1425,0.0319
1.145,0.0349
1.1475,0.0375
1.15,0.0403
1.1525,0.0435
1.155,0.0474
1.1575,0.0522
1.16,0.058
1.1625,0.065
1.165,0.073
1.1675,0.0822
1.17,0.0922
1.1725,0.103
1.175,0.114
1.1775,0.127
1.18,0.14
1.1825,0.153
1.185,0.168
1.1875,0.184
1.19,0.2
1.1925,0.217
1.195,0.234
1.1975,0.252
1.2,0.27
1.2025,0.289
1.205,0.307
1.2075,0.326
1.21,0.344
1.2125,0.362
1.215,0.379
1.2175,0.395
1.22,0.411
1.2225,0.425
1.225,0.438
1.2275,0.45
1.23,0.459
1.2325,0.467
1.235,0.473
1.2375,0.477
1.24,0.48
1.2425,0.48
1.245,0.477
1.2475,0.473
1.25,0.467
1.2525,0.459
1.255,0.449
1.2575,0.438
1.26,0.424
1.2625,0.41
1.265,0.394
1.2675,0.377
1.27,0.359
1.2725,0.34
1.275,0.321
1.2775,0.302
1.28,0.282
1.2825,0.263
1.285,0.243
1.2875,0.224
1.29,0.206
1.2925,0.188
1.295,0.17
1.2975,0.154
1.3,0.138
1.3025,0.123
1.305,0.109
1.3075,0.0959
1.31,0.0838
1.3125,0.0726
1.315,0.0623
1.3175,0.0531
1.32,0.0447
1.3225,0.0372
1.325,0.0305
1.3275,0.0245
1.33,0.0191
1.3325,0.0144
1.335,0.0103
1.3375,0.0066
1.34,0.0035
1.3425,0.0007
1.345,-0.0016
1.3475,-0.0036
1.35,-0.0054
1.3525,-0.0068
1.355,-0.008
1.3575,-0.0089
1.36,-0.0097
1.3625,-0.0104
1.365,-0.0109
1.3675,-0.0113
1.37,-0.0116
1.3725,-0.0118
1.375,-0.0119
1.3775,-0.012
1.38,-0.0121
1.3825,-0.0121
1.385,-0.0121
1.3875,-0.0121
1.39,-0.012
1.3925,-0.0119
1.395,-0.0118
1.3975,-0.0117
1.4,-0.0115
1.4025,-0.0114
1.405,-0.0112
1.4075,-0.0111
1.41,-0.0109
1.4125,-0.0108
1.415,-0.0107
1.4175,-0.0106
1.42,-0.0104
1.4225,-0.0103
1.425,-0.0102
1.4275,-0.01
1.43,-0.0098
1.4325,-0.0096
1.435,-0.0093
1.4375,-0.0089
1.44,-0.0085
1.4425,-0.008
1.445,-0.0074
1.4475,-0.0067
1.45,-0.0059
1.4525,-0.005
1.455,-0.0038
1.4575,-0.0022
1.46,-0.0002
1.4625,0.0023
1.465,0.0055
1.4675,0.0095
1.47,0.0143
1.4725,0.0201
1.475,0.0269
1.4775,0.0349
1.48,0.0441
1.4825,0.0545
1.485,0.0664
1.4875,0.0797
1.49,0.0946
1.4925,0.111
1.495,0.128
1.4975,0.146
1.5,0.164
1.5025,0.182
1.505,0.2
1.5075,0.217
1.51,0.232
1.5125,0.246
1.515,0.258
1.5175,0.268
1.52,0.275
1.5225,0.279
1.525,0.279
1.5275,0.276
1.53,0.27
1.5325,0.26
1.535,0.248
1.5375,0.234
1.54,0.217
1.5425,0.2
1.545,0.182
1.5475,0.163
1.55,0.143
1.5525,0.125
1.555,0.106
1.5575,0.0884
1.56,0.0718
1.5625,0.0565
1.565,0.0427
1.5675,0.0306
1.57,0.0197
1.5725,0.0104
1.575,0.0026
1.5775,-0.0039
1.58,-0.0094
1.5825,-0.0144
1.585,-0.0195
1.5875,-0.0256
1.59,-0.0337
1.5925,-0.045
1.595,-0.0608
1.5975,-0.0827
1.6,-0.11
1.6025,-0.141
1.605,-0.168
1.6075,-0.187
1.61,-0.191
1.6125,-0.174
1.615,-0.127
1.6175,-0.0426
1.62,0.0809
1.6225,0.243
1.625,0.435
1.6275,0.644
1.63,0.848
1.6325,1.02
1.635,1.13
1.6375,1.15
1.64,1.09
1.6425,0.945
1.645,0.747
1.6475,0.523
1.65,0.298
1.6525,0.0944
1.655,-0.0742
1.6575,-0.2
1.66,-0.281
1.6625,-0.319
1.665,-0.323
1.6675,-0.304
1.67,-0.269
1.6725,-0.225
1.675,-0.18
1.6775,-0.138
1.68,-0.104
1.6825,-0.0806
1.685,-0.0647
1.6875,-0.0542
1.69,-0.0473
1.6925,-0.0427
1.695,-0.0391
1.6975,-0.0358
1.7,-0.0324
1.7025,-0.0288
1.705,-0.0249
1.7075,-0.0205
1.71,-0.0155
1.7125,-0.0099
1.715,-0.0037
1.7175,0.0032
1.72,0.0109
1.7225,0.0193
1.725,0.0285
1.7275,0.0386
1.73,0.0495
1.7325,0.0612
1.735,0.0738
1.7375,0.0872
1.74,0.101
1.7425,0.117
1.745,0.133
1.7475,0.15
1.75,0.167
1.7525,0.185
1.755,0.203
1.7575,0.221
1.76,0.239
1.7625,0.257
1.765,0.275
1.7675,0.292
1.77,0.308
1.7725,0.324
1.775,0.339
1.7775,0.352
1.78,0.365
1.7825,0.376
1.785,0.386
1.7875,0.394
1.79,0.4
1.7925,0.405
1.795,0.408
1.7975,0.408
1.8,0.407
1.8025,0.403
1.805,0.397
1.8075,0.389
1.81,0.379
1.8125,0.368
1.815,0.355
1.8175,0.341
1.82,0.325
1.8225,0.309
1.825,0.292
1.8275,0.274
1.83,0.255
1.8325,0.236
1.835,0.217
1.8375,0.197
1.84,0.178
1.8425,0.159
1.845,0.14
1.8475,0.121
1.85,0.103
1.8525,0.0853
1.855,0.0687
1.8575,0.0529
1.86,0.0382
1.8625,0.0246
1.865,0.0119
1.8675,0.0001
1.87,-0.0107
1.8725,-0.0207
1.875,-0.0298
1.8775,-0.0381
1.88,-0.0456
1.8825,-0.0525
1.885,-0.0586
1.8875,-0.064
1.89,-0.0688
1.8925,-0.0731
1.895,-0.0768
1.8975,-0.08
1.9,-0.0828
1.9025,-0.0851
1.905,-0.0871
1.9075,-0.0887
1.91,-0.0901
1.9125,-0.0913
1.915,-0.0922
1.9175,-0.093
1.92,-0.0938
1.9225,-0.0944
1.925,-0.0949
1.9275,-0.0953
1.93,-0.0957
1.9325,-0.096
1.935,-0.0963
1.9375,-0.0964
1.94,-0.0966
1.9425,-0.0967
1.945,-0.0968
1.9475,-0.0969
1.95,-0.097
1.9525,-0.0971
1.955,-0.0971
1.9575,-0.0971
1.96,-0.0972
1.9625,-0.0972
1.965,-0.0972
1.9675,-0.0972
1.97,-0.0972
1.9725,-0.0971
1.975,-0.0971
1.9775,-0.097
1.98,-0.0969
1.9825,-0.0967
1.985,-0.0965
1.9875,-0.0963
1.99,-0.096
1.9925,-0.0956
1.995,-0.0953
1.9975,-0.0949
2,-0.0944
2.0025,-0.0938
2.005,-0.0931
2.0075,-0.0922
2.01,-0.091
2.0125,-0.0896
2.015,-0.0878
2.0175,-0.0856
2.02,-0.0828
2.0225,-0.0795
2.025,-0.0755
2.0275,-0.0709
2.03,-0.0653
2.0325,-0.0587
2.035,-0.0509
2.0375,-0.0417
2.04,-0.031
2.0425,-0.0189
2.045,-0.0053
2.0475,0.0096
2.05,0.0258
2.0525,0.043
2.055,0.0611
2.0575,0.0798
2.06,0.0988
2.0625,0.118
2.065,0.136
2.0675,0.154
2.07,0.17
2.0725,0.184
2.075,0.196
2.0775,0.205
2.08,0.211
2.0825,0.214
2.085,0.213
2.0875,0.21
2.09,0.203
2.0925,0.193
2.095,0.181
2.0975,0.166
2.1,0.15
2.1025,0.132
2.105,0.113
2.1075,0.0936
2.11,0.0742
2.1125,0.055
2.115,0.0365
2.1175,0.019
2.12,0.0026
2.1225,-0.0127
2.125,-0.0267
2.1275,-0.0391
2.13,-0.0498
2.1325,-0.0588
2.135,-0.0661
2.1375,-0.0722
2.14,-0.0773
2.1425,-0.0822
2.145,-0.0876
2.1475,-0.0943
2.15,-0.103
2.1525,-0.116
2.155,-0.134
2.1575,-0.168
2.16,-0.212
2.1625,-0.254
2.165,-0.285
2.1675,-0.298
2.17,-0.288
2.1725,-0.249
2.175,-0.18
2.1775,-0.0805
2.18,0.0494
2.1825,0.207
2.185,0.387
2.1875,0.584
2.19,0.788
2.1925,0.962
2.195,1.07
2.1975,1.1
2.2,1.04
2.2025,0.906
2.205,0.711
2.2075,0.487
2.21,0.263
2.2125,0.062
2.215,-0.102
2.2175,-0.22
2.22,-0.293
2.2225,-0.322
2.225,-0.317
2.2275,-0.29
2.23,-0.25
2.2325,-0.205
2.235,-0.162
2.2375,-0.124
2.24,-0.0945
2.2425,-0.0736
2.245,-0.0597
2.2475,-0.0503
2.25,-0.0442
2.2525,-0.0401
2.255,-0.037
2.2575,-0.0342
2.26,-0.031
2.2625,-0.0273
2.265,-0.0228
2.2675,-0.0176
2.27,-0.012
2.2725,-0.006
2.275,0.0006
2.2775,0.008
2.28,0.016
2.2825,0.0249
2.285,0.0346
2.2875,0.0452
2.29,0.0566
2.2925,0.0689
2.295,0.0821
2.2975,0.096
2.3,0.111
2.3025,0.126
2.305,0.143
2.3075,0.16
2.31,0.177
2.3125,0.195
2.315,0.213
2.3175,0.231
2.32,0.249
2.3225,0.266
2.325,0.283
2.3275,0.299
2.33,0.314
2.3325,0.328
2.335,0.341
2.3375,0.353
2.34,0.363
2.3425,0.371
2.345,0.378
2.3475,0.383
2.35,0.386
2.3525,0.387
2.355,0.386
2.3575,0.382
2.36,0.377
2.3625,0.369
2.365,0.359
2.3675,0.348
2.37,0.335
2.3725,0.32
2.375,0.305
2.3775,0.288
2.38,0.271
2.3825,0.253
2.385,0.235
2.3875,0.216
2.39,0.197
2.3925,0.178
2.395,0.159
2.3975,0.14
2.4,0.122
2.4025,0.104
2.405,0.087
2.4075,0.0705
2.41,0.0547
2.4125,0.0399
2.415,0.0261
2.4175,0.0134
2.42,0.0017
2.4225,-0.0089
2.425,-0.0185
2.4275,-0.0272
2.43,-0.035
2.4325,-0.042
2.435,-0.0482
2.4375,-0.0537
2.44,-0.0585
2.4425,-0.0627
2.445,-0.0663
2.4475,-0.0693
2.45,-0.0719
2.4525,-0.074
2.455,-0.0757
2.4575,-0.077
2.46,-0.078
2.4625,-0.0787
2.465,-0.0791
2.4675,-0.0794
2.47,-0.0794
2.4725,-0.0794
2.475,-0.0792
2.4775,-0.0789
2.48,-0.0786
2.4825,-0.0783
2.485,-0.0778
2.4875,-0.0774
2.49,-0.0769
2.4925,-0.0763
2.495,-0.0758
2.4975,-0.0752
2.5,-0.0746
2.5025,-0.074
2.505,-0.0734
2.5075,-0.0728
2.51,-0.0722
2.5125,-0.0716
2.515,-0.071
2.5175,-0.0704
2.52,-0.0698
2.5225,-0.0692
2.525,-0.0686
2.5275,-0.0681
2.53,-0.0675
2.5325,-0.0669
2.535,-0.0663
2.5375,-0.0657
2.54,-0.0651
2.5425,-0.0644
2.545,-0.0637
2.5475,-0.063
2.55,-0.0622
2.5525,-0.0613
2.555,-0.0603
2.5575,-0.059
2.56,-0.0576
2.5625,-0.0559
2.565,-0.0538
2.5675,-0.0512
2.57,-0.0481
2.5725,-0.0443
2.575,-0.0398
2.5775,-0.0344
2.58,-0.0279
2.5825,-0.0204
2.585,-0.0114
2.5875,-0.0011
2.59,0.0107
2.5925,0.024
2.595,0.0387
2.5975,0.0547
2.6,0.0719
2.6025,0.0899
2.605,0.109
2.6075,0.128
2.61,0.147
2.6125,0.165
2.615,0.182
2.6175,0.198
2.62,0.212
2.6225,0.223
2.625,0.232
2.6275,0.237
2.63,0.239
2.6325,0.238
2.635,0.233
2.6375,0.226
2.64,0.215
2.6425,0.202
2.645,0.187
2.6475,0.17
2.65,0.152
2.6525,0.133
2.655,0.114
2.6575,0.0956
2.66,0.0777
2.6625,0.0608
2.665,0.0451
2.6675,0.0308
2.67,0.018
2.6725,0.0067
2.675,-0.003
2.6775,-0.0112
2.68,-0.0181
2.6825,-0.0239
2.685,-0.0286
2.6875,-0.0327
2.69,-0.0376
2.6925,-0.0443
2.695,-0.054
2.6975,-0.0676
2.7,-0.0856
2.7025,-0.109
2.705,-0.138
2.7075,-0.169
2.71,-0.194
2.7125,-0.205
2.715,-0.196
2.7175,-0.161
2.72,-0.0919
2.7225,0.0148
2.725,0.164
2.7275,0.351
2.73,0.558
2.7325,0.762
2.735,0.941
2.7375,1.07
2.74,1.12
2.7425,1.07
2.745,0.938
2.7475,0.753
2.75,0.536
2.7525,0.312
2.755,0.107
2.7575,-0.0579
2.76,-0.178
2.7625,-0.253
2.765,-0.286
2.7675,-0.283
2.77,-0.254
2.7725,-0.212
2.775,-0.165
2.7775,-0.12
2.78,-0.0822
2.7825,-0.0536
2.785,-0.0345
2.7875,-0.0229
2.79,-0.0154
2.7925,-0.01
2.795,-0.006
2.7975,-0.0027
2.8,0.0005
2.8025,0.0039
2.805,0.008
2.8075,0.0127
2.81,0.0179
2.8125,0.0237
2.815,0.0301
2.8175,0.0374
2.82,0.0454
2.8225,0.0543
2.825,0.064
2.8275,0.0747
2.83,0.0863
2.8325,0.0988
2.835,0.112
2.8375,0.127
2.84,0.142
2.8425,0.158
2.845,0.175
2.8475,0.193
2.85,0.211
2.8525,0.23
2.855,0.249
2.8575,0.268
2.86,0.286
2.8625,0.305
2.865,0.322
2.8675,0.339
2.87,0.355
2.8725,0.371
2.875,0.384
2.8775,0.397
2.88,0.408
2.8825,0.418
2.885,0.425
2.8875,0.431
2.89,0.435
2.8925,0.437
2.895,0.437
2.8975,0.434
2.9,0.429
2.9025,0.421
2.905,0.412
2.9075,0.401
2.91,0.388
2.9125,0.374
2.915,0.359
2.9175,0.342
2.92,0.325
2.9225,0.307
2.925,0.289
2.9275,0.27
2.93,0.251
2.9325,0.232
2.935,0.214
2.9375,0.195
2.94,0.177
2.9425,0.159
2.945,0.142
2.9475,0.126
2.95,0.111
2.9525,0.0965
2.955,0.0832
2.9575,0.071
2.96,0.0599
2.9625,0.0498
2.965,0.0407
2.9675,0.0326
2.97,0.0253
2.9725,0.0188
2.975,0.0132
2.9775,0.0082
2.98,0.004
2.9825,0.0004
2.985,-0.0027
2.9875,-0.0052
2.99,-0.0072
2.9925,-0.0088
2.995,-0.0099
2.9975,-0.0108
3,-0.0113
3.0025,-0.0115
3.005,-0.0115
3.0075,-0.0114
3.01,-0.011
3.0125,-0.0106
3.015,-0.0101
3.0175,-0.0096
3.02,-0.009
3.0225,-0.0083
3.025,-0.0077
3.0275,-0.0069
3.03,-0.0062
3.0325,-0.0055
3.035,-0.0047
3.0375,-0.004
3.04,-0.0033
3.0425,-0.0026
3.045,-0.0019
3.0475,-0.0013
3.05,-0.0006
3.0525,0
3.055,0.0006
3.0575,0.0011
3.06,0.0017
3.0625,0.0023
3.065,0.0028
3.0675,0.0034
3.07,0.0039
3.0725,0.0045
3.075,0.0051
3.0775,0.0057
3.08,0.0064
3.0825,0.0071
3.085,0.0079
3.0875,0.0087
3.09,0.0097
3.0925,0.0108
3.095,0.0121
3.0975,0.0137
3.1,0.0156
3.1025,0.018
3.105,0.0209
3.1075,0.0245
3.11,0.0289
3.1125,0.0341
3.115,0.0404
3.1175,0.0479
3.12,0.0565
3.1225,0.0666
3.125,0.0782
3.1275,0.0913
3.13,0.106
3.1325,0.122
3.135,0.139
3.1375,0.157
3.14,0.176
3.1425,0.196
3.145,0.215
3.1475,0.234
3.15,0.252
3.1525,0.268
3.155,0.282
3.1575,0.294
3.16,0.303
3.1625,0.308
3.165,0.311
3.1675,0.31
3.17,0.305
3.1725,0.298
3.175,0.287
3.1775,0.274
3.18,0.258
3.1825,0.241
3.185,0.222
3.1875,0.203
3.19,0.185
3.1925,0.166
3.195,0.148
3.1975,0.131
3.2,0.116
3.2025,0.102
3.205,0.0895
3.2075,0.0787
3.21,0.0694
3.2125,0.0615
3.215,0.0549
3.2175,0.0493
3.22,0.0445
3.2225,0.04
3.225,0.0348
3.2275,0.0271
3.23,0.0158
3.2325,-0.0001
3.235,-0.021
3.2375,-0.0474
3.24,-0.0776
3.2425,-0.105
3.245,-0.123
3.2475,-0.124
3.25,-0.101
3.2525,-0.045
3.255,0.0497
3.2575,0.186
3.26,0.361
3.2625,0.562
3.265,0.771
3.2675,0.964
3.27,1.11
3.2725,1.17
3.275,1.14
3.2775,1.03
3.28,0.863
3.2825,0.65
3.285,0.42
3.2875,0.204
3.29,0.0246
3.2925,-0.113
3.295,-0.207
3.2975,-0.258
3.3,-0.271
3.3025,-0.253
3.305,-0.215
3.3075,-0.169
3.31,-0.121
3.3125,-0.0783
3.315,-0.0433
3.3175,-0.0177
3.32,-0.0007
3.3225,0.0105
3.325,0.0183
3.3275,0.024
3.33,0.0283
3.3325,0.0321
3.335,0.036
3.3375,0.0402
3.34,0.045
3.3425,0.0503
3.345,0.0561
3.3475,0.0624
3.35,0.0694
3.3525,0.0771
3.355,0.0855
3.3575,0.0947
3.36,0.105
3.3625,0.116
3.365,0.127
3.3675,0.14
3.37,0.153
3.3725,0.167
3.375,0.182
3.3775,0.198
3.38,0.215
3.3825,0.232
3.385,0.25
3.3875,0.268
3.39,0.287
3.3925,0.305
3.395,0.323
3.3975,0.341
3.4,0.359
3.4025,0.376
3.405,0.393
3.4075,0.409
3.41,0.423
3.4125,0.437
3.415,0.449
3.4175,0.46
3.42,0.469
3.4225,0.476
3.425,0.481
3.4275,0.484
3.43,0.485
3.4325,0.484
3.435,0.48
3.4375,0.475
3.44,0.468
3.4425,0.459
3.445,0.449
3.4475,0.436
3.45,0.423
3.4525,0.408
3.455,0.392
3.4575,0.374
3.46,0.356
3.4625,0.338
3.465,0.318
3.4675,0.299
3.47,0.279
3.4725,0.26
3.475,0.24
3.4775,0.222
3.48,0.204
3.4825,0.186
3.485,0.17
3.4875,0.154
3.49,0.139
3.4925,0.125
3.495,0.112
3.4975,0.1
3.5,0.0888
3.5025,0.0785
3.505,0.0692
3.5075,0.0607
3.51,0.0532
3.5125,0.0465
3.515,0.0406
3.5175,0.0355
3.52,0.0311
3.5225,0.0272
3.525,0.0239
3.5275,0.021
3.53,0.0186
3.5325,0.0165
3.535,0.0148
3.5375,0.0134
3.54,0.0123
3.5425,0.0114
3.545,0.0108
3.5475,0.0103
3.55,0.0099
3.5525,0.0097
3.555,0.0096
3.5575,0.0095
3.56,0.0096
3.5625,0.0097
3.565,0.0098
3.5675,0.0099
3.57,0.0101
3.5725,0.0104
3.575,0.0106
3.5775,0.0109
3.58,0.0112
3.5825,0.0116
3.585,0.012
3.5875,0.0123
3.59,0.0127
3.5925,0.0132
3.595,0.0136
3.5975,0.014
3.6,0.0144
3.6025,0.0149
3.605,0.0154
3.6075,0.0159
3.61,0.0164
3.6125,0.0169
3.615,0.0176
3.6175,0.0182
3.62,0.0189
3.6225,0.0197
3.625,0.0206
3.6275,0.0216
3.63,0.0227
3.6325,0.0239
3.635,0.0252
3.6375,0.0267
3.64,0.0284
3.6425,0.0304
3.645,0.0329
3.6475,0.0359
3.65,0.0395
3.6525,0.0439
3.655,0.0491
3.6575,0.0552
3.66,0.0624
3.6625,0.0706
3.665,0.08
3.6675,0.0908
3.67,0.103
3.6725,0.117
3.675,0.132
3.6775,0.149
3.68,0.167
3.6825,0.185
3.685,0.204
3.6875,0.223
3.69,0.242
3.6925,0.259
3.695,0.276
3.6975,0.291
3.7,0.304
3.7025,0.315
3.705,0.323
3.7075,0.328
3.71,0.33
3.7125,0.329
3.715,0.324
3.7175,0.315
3.72,0.303
3.7225,0.289
3.725,0.273
3.7275,0.256
3.73,0.238
3.7325,0.22
3.735,0.201
3.7375,0.182
3.74,0.164
3.7425,0.147
3.745,0.13
3.7475,0.115
3.75,0.101
3.7525,0.0886
3.755,0.0779
3.7575,0.0686
3.76,0.0606
3.7625,0.0539
3.765,0.0482
3.7675,0.0431
3.77,0.0378
3.7725,0.0313
3.775,0.0226
3.7775,0.0103
3.78,-0.0071
3.7825,-0.0302
3.785,-0.0579
3.7875,-0.0877
3.79,-0.115
3.7925,-0.134
3.795,-0.136
3.7975,-0.114
3.8,-0.0593
3.8025,0.0348
3.805,0.17
3.8075,0.341
3.81,0.54
3.8125,0.752
3.815,0.952
3.8175,1.1
3.82,1.18
3.8225,1.18
3.825,1.09
3.8275,0.927
3.83,0.719
3.8325,0.492
3.835,0.271
3.8375,0.0761
3.84,-0.081
3.8425,-0.194
3.845,-0.263
3.8475,-0.289
3.85,-0.283
3.8525,-0.256
3.855,-0.217
3.8575,-0.173
3.86,-0.13
3.8625,-0.0927
3.865,-0.0626
3.8675,-0.0408
3.87,-0.0262
3.8725,-0.0154
3.875,-0.0071
3.8775,-0.0007
3.88,0.0043
3.8825,0.0083
3.885,0.0117
3.8875,0.0149
3.89,0.0182
3.8925,0.0219
3.895,0.0261
3.8975,0.0311
3.9,0.037
3.9025,0.0439
3.905,0.0518
3.9075,0.0608
3.91,0.0708
3.9125,0.0817
3.915,0.0935
3.9175,0.106
3.92,0.119
3.9225,0.133
3.925,0.148
3.9275,0.163
3.93,0.18
3.9325,0.197
3.935,0.214
3.9375,0.232
3.94,0.25
3.9425,0.269
3.945,0.287
3.9475,0.306
3.95,0.324
3.9525,0.342
3.955,0.359
3.9575,0.375
3.96,0.391
3.9625,0.405
3.965,0.418
3.9675,0.43
3.97,0.44
3.9725,0.448
3.975,0.454
3.9775,0.459
3.98,0.461
3.9825,0.462
3.985,0.46
3.9875,0.457
3.99,0.451
3.9925,0.444
3.995,0.434
3.9975,0.423
4,0.411
4.0025,0.397
4.005,0.381
4.0075,0.364
4.01,0.347
4.0125,0.328
4.015,0.31
4.0175,0.29
4.02,0.271
4.0225,0.251
4.025,0.232
4.0275,0.213
4.03,0.194
4.0325,0.176
4.035,0.158
4.0375,0.141
4.04,0.125
4.0425,0.11
4.045,0.0956
4.0475,0.0821
4.05,0.0696
4.0525,0.0581
4.055,0.0474
4.0575,0.0377
4.06,0.0288
4.0625,0.0207
4.065,0.0134
4.0675,0.0068
4.07,0.001
4.0725,-0.0042
4.075,-0.0089
4.0775,-0.013
4.08,-0.0166
4.0825,-0.0198
4.085,-0.0226
4.0875,-0.0251
4.09,-0.0272
4.0925,-0.0291
4.095,-0.0307
4.0975,-0.0322
4.1,-0.0334
4.1025,-0.0345
4.105,-0.0355
4.1075,-0.0363
4.11,-0.037
4.1125,-0.0377
4.115,-0.0383
4.1175,-0.0388
4.12,-0.0393
4.1225,-0.0397
4.125,-0.0401
4.1275,-0.0404
4.13,-0.0407
4.1325,-0.041
4.135,-0.0412
4.1375,-0.0414
4.14,-0.0416
4.1425,-0.0418
4.145,-0.0419
4.1475,-0.0421
4.15,-0.0422
4.1525,-0.0423
4.155,-0.0424
4.1575,-0.0425
4.16,-0.0426
4.1625,-0.0426
4.165,-0.0426
4.1675,-0.0426
4.17,-0.0426
4.1725,-0.0425
4.175,-0.0423
4.1775,-0.0421
4.18,-0.0418
4.1825,-0.0415
4.185,-0.0411
4.1875,-0.0405
4.19,-0.0399
4.1925,-0.0391
4.195,-0.0383
4.1975,-0.0372
4.2,-0.0358
4.2025,-0.0339
4.205,-0.0314
4.2075,-0.0283
4.21,-0.0244
4.2125,-0.0196
4.215,-0.0138
4.2175,-0.0071
4.22,0.0008
4.2225,0.0098
4.225,0.0201
4.2275,0.0317
4.23,0.0445
4.2325,0.0588
4.235,0.0745
4.2375,0.0919
4.24,0.111
4.2425,0.13
4.245,0.149
4.2475,0.168
4.25,0.186
4.2525,0.203
4.255,0.218
4.2575,0.232
4.26,0.243
4.2625,0.251
4.265,0.257
4.2675,0.259
4.27,0.259
4.2725,0.256
4.275,0.25
4.2775,0.241
4.28,0.229
4.2825,0.214
4.285,0.197
4.2875,0.179
4.29,0.16
4.2925,0.141
4.295,0.121
4.2975,0.102
4.3,0.0841
4.3025,0.0667
4.305,0.0505
4.3075,0.0357
4.31,0.0222
4.3125,0.0102
4.315,-0.0003
4.3175,-0.0095
4.32,-0.0172
4.3225,-0.0234
4.325,-0.0289
4.3275,-0.0342
4.33,-0.0403
4.3325,-0.0477
4.335,-0.0574
4.3375,-0.07
4.34,-0.0863
4.3425,-0.107
4.345,-0.133
4.3475,-0.164
4.35,-0.194
4.3525,-0.215
4.355,-0.221
4.3575,-0.205
4.36,-0.16
4.3625,-0.082
4.365,0.0348
4.3675,0.194
4.37,0.385
4.3725,0.591
4.375,0.792
4.3775,0.967
4.38,1.09
4.3825,1.14
4.385,1.09
4.3875,0.96
4.39,0.777
4.3925,0.563
4.395,0.339
4.3975,0.127
4.4,-0.05
4.4025,-0.183
4.405,-0.272
4.4075,-0.32
4.41,-0.332
4.4125,-0.314
4.415,-0.276
4.4175,-0.231
4.42,-0.185
4.4225,-0.144
4.425,-0.111
4.4275,-0.0861
4.43,-0.0698
4.4325,-0.0603
4.435,-0.0544
4.4375,-0.05
4.44,-0.0467
4.4425,-0.044
4.445,-0.0413
4.4475,-0.0383
4.45,-0.0348
4.4525,-0.0307
4.455,-0.0259
4.4575,-0.0206
4.46,-0.0146
4.4625,-0.0079
4.465,-0.0004
4.4675,0.0079
4.47,0.0171
4.4725,0.0272
4.475,0.0382
4.4775,0.0501
4.48,0.0628
4.4825,0.0765
4.485,0.091
4.4875,0.106
4.49,0.122
4.4925,0.139
4.495,0.157
4.4975,0.175
4.5,0.193
4.5025,0.212
4.505,0.23
4.5075,0.249
4.51,0.267
4.5125,0.284
4.515,0.301
4.5175,0.316
4.52,0.331
4.5225,0.345
4.525,0.357
4.5275,0.367
4.53,0.377
4.5325,0.384
4.535,0.39
4.5375,0.393
4.54,0.395
4.5425,0.395
4.545,0.392
4.5475,0.388
4.55,0.381
4.5525,0.372
4.555,0.361
4.5575,0.348
4.56,0.335
4.5625,0.319
4.565,0.303
4.5675,0.286
4.57,0.268
4.5725,0.25
4.575,0.231
4.5775,0.211
4.58,0.192
4.5825,0.173
4.585,0.153
4.5875,0.134
4.59,0.116
4.5925,0.0976
4.595,0.08
4.5975,0.0632
4.6,0.0473
4.6025,0.0322
4.605,0.0182
4.6075,0.0052
4.61,-0.0067
4.6125,-0.0176
4.615,-0.0276
4.6175,-0.0366
4.62,-0.0448
4.6225,-0.0523
4.625,-0.0589
4.6275,-0.0649
4.63,-0.0701
4.6325,-0.0748
4.635,-0.0789
4.6375,-0.0824
4.64,-0.0855
4.6425,-0.0881
4.645,-0.0903
4.6475,-0.0921
4.65,-0.0936
4.6525,-0.0949
4.655,-0.0958
4.6575,-0.0966
4.66,-0.0972
4.6625,-0.0977
4.665,-0.0981
4.6675,-0.0984
4.67,-0.0986
4.6725,-0.0988
4.675,-0.0989
4.6775,-0.099
4.68,-0.099
4.6825,-0.099
4.685,-0.099
4.6875,-0.0989
4.69,-0.0988
4.6925,-0.0987
4.695,-0.0985
4.6975,-0.0983
4.7,-0.0982
4.7025,-0.098
4.705,-0.0977
4.7075,-0.0975
4.71,-0.0973
4.7125,-0.097
4.715,-0.0967
4.7175,-0.0964
4.72,-0.0961
4.7225,-0.0958
4.725,-0.0954
4.7275,-0.095
4.73,-0.0946
4.7325,-0.0941
4.735,-0.0935
4.7375,-0.0929
4.74,-0.0923
4.7425,-0.0916
4.745,-0.0908
4.7475,-0.0898
4.75,-0.0887
4.7525,-0.0873
4.755,-0.0857
4.7575,-0.0837
4.76,-0.0813
4.7625,-0.0783
4.765,-0.0748
4.7675,-0.0705
4.77,-0.0653
4.7725,-0.0592
4.775,-0.0519
4.7775,-0.0434
4.78,-0.0335
4.7825,-0.0222
4.785,-0.0094
4.7875,0.0047
4.79,0.0201
4.7925,0.0366
4.795,0.0539
4.7975,0.072
4.8,0.0904
4.8025,0.109
4.805,0.127
4.8075,0.144
4.81,0.161
4.8125,0.175
4.815,0.187
4.8175,0.197
4.82,0.203
4.8225,0.206
4.825,0.206
4.8275,0.203
4.83,0.197
4.8325,0.187
4.835,0.175
4.8375,0.161
4.84,0.144
4.8425,0.126
4.845,0.107
4.8475,0.0873
4.85,0.0677
4.8525,0.0485
4.855,0.03
4.8575,0.0124
4.86,-0.0039
4.8625,-0.0188
4.865,-0.0322
4.8675,-0.0441
4.87,-0.0545
4.8725,-0.0635
4.875,-0.0711
4.8775,-0.0776
4.88,-0.0829
4.8825,-0.0876
4.885,-0.0931
4.8875,-0.101
4.89,-0.111
4.8925,-0.126
4.895,-0.144
4.8975,-0.167
4.9,-0.195
4.9025,-0.227
4.905,-0.256
4.9075,-0.273
4.91,-0.269
4.9125,-0.239
4.915,-0.178
4.9175,-0.0805
4.92,0.0536
4.9225,0.225
4.925,0.437
4.9275,0.658
4.93,0.852
4.9325,0.993
4.935,1.06
4.9375,1.05
4.94,0.959
4.9425,0.795
4.945,0.584
4.9475,0.359
4.95,0.144
4.9525,-0.0433
4.955,-0.191
4.9575,-0.292
4.96,-0.347
4.9625,-0.36
4.965,-0.342
4.9675,-0.306
4.97,-0.261
4.9725,-0.213
4.975,-0.17
4.9775,-0.135
4.98,-0.109
4.9825,-0.0929
4.985,-0.0835
4.9875,-0.0767
4.99,-0.0716
4.9925,-0.0677
4.995,-0.0644
4.9975,-0.061
5,-0.0574
5.0025,-0.0532
5.005,-0.0483
5.0075,-0.0429
5.01,-0.0369
5.0125,-0.0302
5.015,-0.0228
5.0175,-0.0146
5.02,-0.0055
5.0225,0.0044
5.025,0.0152
5.0275,0.027
5.03,0.0396
5.0325,0.0532
5.035,0.0676
5.0375,0.0829
5.04,0.0989
5.0425,0.116
5.045,0.133
5.0475,0.152
5.05,0.17
5.0525,0.189
5.055,0.209
5.0575,0.228
5.06,0.246
5.0625,0.264
5.065,0.282
5.0675,0.298
5.07,0.314
5.0725,0.328
5.075,0.341
5.0775,0.352
5.08,0.362
5.0825,0.37
5.085,0.377
5.0875,0.381
5.09,0.383
5.0925,0.384
5.095,0.382
5.0975,0.377
5.1,0.371
5.1025,0.362
5.105,0.351
5.1075,0.339
5.11,0.325
5.1125,0.31
5.115,0.294
5.1175,0.277
5.12,0.26
5.1225,0.242
5.125,0.223
5.1275,0.204
5.13,0.185
5.1325,0.166
5.135,0.148
5.1375,0.129
5.14,0.112
5.1425,0.0943
5.145,0.0776
5.1475,0.0617
5.15,0.0466
5.1525,0.0324
5.155,0.0192
5.1575,0.0071
5.16,-0.0039
5.1625,-0.0139
5.165,-0.023
5.1675,-0.0311
5.17,-0.0383
5.1725,-0.0448
5.175,-0.0505
5.1775,-0.0555
5.18,-0.0599
5.1825,-0.0636
5.185,-0.0669
5.1875,-0.0696
5.19,-0.0718
5.1925,-0.0736
5.195,-0.0751
5.1975,-0.0762
5.2,-0.077
5.2025,-0.0775
5.205,-0.0778
5.2075,-0.0779
5.21,-0.0778
5.2125,-0.0776
5.215,-0.0773
5.2175,-0.0768
5.22,-0.0763
5.2225,-0.0757
5.225,-0.075
5.2275,-0.0743
5.23,-0.0735
5.2325,-0.0726
5.235,-0.0718
5.2375,-0.0708
5.24,-0.0699
5.2425,-0.0689
5.245,-0.0679
5.2475,-0.0669
5.25,-0.0658
5.2525,-0.0648
5.255,-0.0637
5.2575,-0.0627
5.26,-0.0616
5.2625,-0.0606
5.265,-0.0595
5.2675,-0.0584
5.27,-0.0574
5.2725,-0.0563
5.275,-0.0552
5.2775,-0.0541
5.28,-0.0531
5.2825,-0.0519
5.285,-0.0508
5.2875,-0.0497
5.29,-0.0486
5.2925,-0.0476
5.295,-0.0464
5.2975,-0.045
5.3,-0.0432
5.3025,-0.041
5.305,-0.0383
5.3075,-0.0349
5.31,-0.0307
5.3125,-0.0257
5.315,-0.0198
5.3175,-0.0129
5.32,-0.005
5.3225,0.0042
5.325,0.0145
5.3275,0.026
5.33,0.039
5.3325,0.0532
5.335,0.069
5.3375,0.0861
5.34,0.104
5.3425,0.123
5.345,0.142
5.3475,0.161
5.35,0.179
5.3525,0.196
5.355,0.212
5.3575,0.225
5.36,0.236
5.3625,0.245
5.365,0.25
5.3675,0.252
5.37,0.251
5.3725,0.246
5.375,0.238
5.3775,0.227
5.38,0.214
5.3825,0.2
5.385,0.183
5.3875,0.166
5.39,0.148
5.3925,0.129
5.395,0.111
5.3975,0.0937
5.4,0.0772
5.4025,0.0618
5.405,0.0477
5.4075,0.0351
5.41,0.0242
5.4125,0.0152
5.415,0.0079
5.4175,0.0021
5.42,-0.0026
5.4225,-0.0068
5.425,-0.011
5.4275,-0.0161
5.43,-0.0231
5.4325,-0.0329
5.435,-0.047
5.4375,-0.0665
5.44,-0.0915
5.4425,-0.12
5.445,-0.149
5.4475,-0.173
5.45,-0.184
5.4525,-0.174
5.455,-0.136
5.4575,-0.0606
5.46,0.0571
5.4625,0.216
5.465,0.407
5.4675,0.615
5.47,0.82
5.4725,0.993
5.475,1.1
5.4775,1.13
5.48,1.07
5.4825,0.923
5.485,0.721
5.4875,0.495
5.49,0.273
5.4925,0.0742
5.495,-0.0883
5.4975,-0.206
5.5,-0.279
5.5025,-0.308
5.505,-0.304
5.5075,-0.275
5.51,-0.232
5.5125,-0.185
5.515,-0.14
5.5175,-0.103
5.52,-0.0741
5.5225,-0.0542
5.525,-0.0406
5.5275,-0.0313
5.53,-0.0251
5.5325,-0.0207
5.535,-0.0173
5.5375,-0.014
5.54,-0.0104
5.5425,-0.0061
5.545,-0.0011
5.5475,0.0048
5.55,0.011
5.5525,0.0178
5.555,0.0253
5.5575,0.0336
5.56,0.0427
5.5625,0.0526
5.565,0.0634
5.5675,0.0751
5.57,0.0877
5.5725,0.101
5.575,0.116
5.5775,0.131
5.58,0.147
5.5825,0.164
5.585,0.181
5.5875,0.2
5.59,0.218
5.5925,0.238
5.595,0.257
5.5975,0.276
5.6,0.295
5.6025,0.313
5.605,0.331
5.6075,0.349
5.61,0.365
5.6125,0.38
5.615,0.394
5.6175,0.407
5.62,0.419
5.6225,0.428
5.625,0.436
5.6275,0.442
5.63,0.446
5.6325,0.448
5.635,0.448
5.6375,0.445
5.64,0.44
5.6425,0.432
5.645,0.423
5.6475,0.412
5.65,0.399
5.6525,0.385
5.655,0.37
5.6575,0.354
5.66,0.338
5.6625,0.32
5.665,0.303
5.6675,0.285
5.67,0.266
5.6725,0.248
5.675,0.23
5.6775,0.212
5.68,0.195
5.6825,0.178
5.685,0.161
5.6875,0.146
5.69,0.13
5.6925,0.116
5.695,0.103
5.6975,0.09
5.7,0.0784
5.7025,0.0677
5.705,0.0581
5.7075,0.0495
5.71,0.0419
5.7125,0.0351
5.715,0.0292
5.7175,0.024
5.72,0.0195
5.7225,0.0157
5.725,0.0125
5.7275,0.0098
5.73,0.0076
5.7325,0.0058
5.735,0.0045
5.7375,0.0035
5.74,0.0027
5.7425,0.0023
5.745,0.0021
5.7475,0.0021
5.75,0.0023
5.7525,0.0027
5.755,0.0032
5.7575,0.0038
5.76,0.0044
5.7625,0.0052
5.765,0.006
5.7675,0.0068
5.77,0.0077
5.7725,0.0086
5.775,0.0096
5.7775,0.0105
5.78,0.0115
5.7825,0.0125
5.785,0.0135
5.7875,0.0145
5.79,0.0155
5.7925,0.0165
5.795,0.0175
5.7975,0.0185
5.8,0.0194
5.8025,0.0203
5.805,0.0212
5.8075,0.022
5.81,0.0229
5.8125,0.0237
5.815,0.0245
5.8175,0.0254
5.82,0.0262
5.8225,0.027
5.825,0.0279
5.8275,0.0288
5.83,0.0298
5.8325,0.0309
5.835,0.032
5.8375,0.0333
5.84,0.0346
5.8425,0.0362
5.845,0.0382
5.8475,0.0406
5.85,0.0436
5.8525,0.0473
5.855,0.0518
5.8575,0.0572
5.86,0.0636
5.8625,0.0711
5.865,0.0797
5.8675,0.0896
5.87,0.101
5.8725,0.114
5.875,0.128
5.8775,0.144
5.88,0.161
5.8825,0.179
5.885,0.198
5.8875,0.217
5.89,0.236
5.8925,0.254
5.895,0.271
5.8975,0.287
5.9,0.301
5.9025,0.313
5.905,0.322
5.9075,0.329
5.91,0.332
5.9125,0.332
5.915,0.329
5.9175,0.321
5.92,0.311
5.9225,0.298
5.925,0.282
5.9275,0.266
5.93,0.248
5.9325,0.23
5.935,0.211
5.9375,0.193
5.94,0.175
5.9425,0.158
5.945,0.142
5.9475,0.127
5.95,0.113
5.9525,0.101
5.955,0.09
5.9575,0.0808
5.96,0.0746
5.9625,0.0713
5.965,0.0686
5.9675,0.0647
5.97,0.0583
5.9725,0.0484
5.975,0.0346
5.9775,0.0168
5.98,-0.0047
5.9825,-0.029
5.985,-0.055
5.9875,-0.0812
5.99,-0.105
5.9925,-0.125
5.995,-0.132
5.9975,-0.112
6,-0.0569
6.0025,0.038
6.005,0.173
6.0075,0.343
6.01,0.54
6.0125,0.75
6.015,0.951
6.0175,1.11
6.02,1.19
6.0225,1.19
6.025,1.1
6.0275,0.933
6.03,0.724
6.0325,0.498
6.035,0.279
6.0375,0.0872
6.04,-0.0655
6.0425,-0.173
6.045,-0.236
6.0475,-0.259
6.05,-0.248
6.0525,-0.217
6.055,-0.174
6.0575,-0.128
6.06,-0.0843
6.0625,-0.0475
6.065,-0.0192
6.0675,0.0007
6.07,0.015
6.0725,0.0257
6.075,0.0337
6.0775,0.0395
6.08,0.0438
6.0825,0.0472
6.085,0.0501
6.0875,0.053
6.09,0.0562
6.0925,0.06
6.095,0.0647
6.0975,0.0703
6.1,0.077
6.1025,0.0848
6.105,0.0937
6.1075,0.103
6.11,0.114
6.1125,0.125
6.115,0.137
6.1175,0.15
6.12,0.163
6.1225,0.178
6.125,0.193
6.1275,0.209
6.13,0.225
6.1325,0.243
6.135,0.26
6.1375,0.279
6.14,0.297
6.1425,0.315
6.145,0.334
6.1475,0.352
6.15,0.37
6.1525,0.387
6.155,0.404
6.1575,0.42
6.16,0.434
6.1625,0.448
6.165,0.459
6.1675,0.469
6.17,0.478
6.1725,0.484
6.175,0.489
6.1775,0.491
6.18,0.492
6.1825,0.49
6.185,0.486
6.1875,0.481
6.19,0.473
6.1925,0.463
6.195,0.452
6.1975,0.439
6.2,0.425
6.2025,0.409
6.205,0.392
6.2075,0.375
6.21,0.356
6.2125,0.337
6.215,0.318
6.2175,0.298
6.22,0.279
6.2225,0.259
6.225,0.24
6.2275,0.222
6.23,0.204
6.2325,0.186
6.235,0.17
6.2375,0.154
6.24,0.139
6.2425,0.125
6.245,0.112
6.2475,0.1
6.25,0.0889
6.2525,0.0787
6.255,0.0695
6.2575,0.0613
6.26,0.0539
6.2625,0.0473
6.265,0.0414
6.2675,0.0362
6.27,0.0316
6.2725,0.0276
6.275,0.0242
6.2775,0.0211
6.28,0.0186
6.2825,0.0164
6.285,0.0145
6.2875,0.013
6.29,0.0117
6.2925,0.0107
6.295,0.0099
6.2975,0.0093
6.3,0.0088
6.3025,0.0085
6.305,0.0083
6.3075,0.0082
6.31,0.0082
6.3125,0.0082
6.315,0.0084
6.3175,0.0085
6.32,0.0088
6.3225,0.009
6.325,0.0093
6.3275,0.0097
6.33,0.0101
6.3325,0.0105
6.335,0.011
6.3375,0.0115
6.34,0.012
6.3425,0.0126
6.345,0.0131
6.3475,0.0137
6.35,0.0143
6.3525,0.0148
6.355,0.0154
6.3575,0.016
6.36,0.0166
6.3625,0.0171
6.365,0.0177
6.3675,0.0184
6.37,0.019
6.3725,0.0197
6.375,0.0204
6.3775,0.0211
6.38,0.0219
6.3825,0.0228
6.385,0.0238
6.3875,0.0248
6.39,0.026
6.3925,0.0275
6.395,0.0293
6.3975,0.0315
6.4,0.0329
6.4025,0.0375
6.405,0.0481
6.4075,0.0596
6.41,0.072
6.4125,0.0853
6.415,0.0994
6.4175,0.114
6.42,0.13
6.4225,0.147
6.425,0.165
6.4275,0.183
6.43,0.202
6.4325,0.221
6.435,0.24
6.4375,0.259
6.44,0.277
6.4425,0.295
6.445,0.313
6.4475,0.329
6.45,0.345
6.4525,0.36
6.455,0.373
6.4575,0.385
6.46,0.395
6.4625,0.404
6.465,0.411
6.4675,0.416
6.47,0.42
6.4725,0.421
6.475,0.42
6.4775,0.416
6.48,0.41
6.4825,0.402
6.485,0.393
6.4875,0.381
6.49,0.368
6.4925,0.353
6.495,0.338
6.4975,0.321
6.5,0.304
6.5025,0.286
6.505,0.267
6.5075,0.248
6.51,0.229
6.5125,0.211
6.515,0.192
6.5175,0.173
6.52,0.155
6.5225,0.138
6.525,0.121
6.5275,0.104
6.53,0.0889
6.5325,0.0744
6.535,0.0608
6.5375,0.0482
6.54,0.0367
6.5425,0.0263
6.545,0.0169
6.5475,0.0085
6.55,0.0009
6.5525,-0.0059
6.555,-0.0119
6.5575,-0.0171
6.56,-0.0217
6.5625,-0.0257
6.565,-0.0291
6.5675,-0.032
6.57,-0.0344
6.5725,-0.0363
6.575,-0.0378
6.5775,-0.039
6.58,-0.0398
6.5825,-0.0404
6.585,-0.0407
6.5875,-0.0408
6.59,-0.0407
6.5925,-0.0404
6.595,-0.04
6.5975,-0.0395
6.6,-0.0389
6.6025,-0.0383
6.605,-0.0376
6.6075,-0.0368
6.61,-0.036
6.6125,-0.0352
6.615,-0.0343
6.6175,-0.0334
6.62,-0.0325
6.6225,-0.0315
6.625,-0.0306
6.6275,-0.0296
6.63,-0.0286
6.6325,-0.0277
6.635,-0.0267
6.6375,-0.0257
6.64,-0.0248
6.6425,-0.0238
6.645,-0.0228
6.6475,-0.0218
6.65,-0.0209
6.6525,-0.0199
6.655,-0.0189
6.6575,-0.0179
6.66,-0.0168
6.6625,-0.0158
6.665,-0.0147
6.6675,-0.0136
6.67,-0.0125
6.6725,-0.0113
6.675,-0.0099
6.6775,-0.0083
6.68,-0.0064
6.6825,-0.004
6.685,-0.0013
6.6875,0.0021
6.69,0.0061
6.6925,0.0108
6.695,0.0164
6.6975,0.0228
6.7,0.0304
6.7025,0.039
6.705,0.0489
6.7075,0.0602
6.71,0.073
6.7125,0.0875
6.715,0.104
6.7175,0.122
6.72,0.141
6.7225,0.161
6.725,0.18
6.7275,0.199
6.73,0.217
6.7325,0.234
6.735,0.249
6.7375,0.262
6.74,0.272
6.7425,0.28
6.745,0.286
6.7475,0.288
6.75,0.288
6.7525,0.284
6.755,0.278
6.7575,0.268
6.76,0.255
6.7625,0.239
6.765,0.222
6.7675,0.204
6.77,0.185
6.7725,0.166
6.775,0.148
6.7775,0.129
6.78,0.112
6.7825,0.0962
6.785,0.0815
6.7875,0.0682
6.79,0.0565
6.7925,0.0464
6.795,0.0377
6.7975,0.0308
6.8,0.0254
6.8025,0.0206
6.805,0.0156
6.8075,0.0097
6.81,0.0021
6.8125,-0.0079
6.815,-0.021
6.8175,-0.038
6.82,-0.0595
6.8225,-0.0863
6.825,-0.12
6.8275,-0.15
6.83,-0.166
6.8325,-0.158
6.835,-0.119
6.8375,-0.0452
6.84,0.0652
6.8425,0.211
6.845,0.389
6.8475,0.593
6.85,0.807
6.8525,0.994
6.855,1.12
6.8575,1.17
6.86,1.13
6.8625,1
6.865,0.817
6.8675,0.596
6.87,0.372
6.8725,0.168
6.875,-0.0011
6.8775,-0.126
6.88,-0.204
6.8825,-0.236
6.885,-0.235
6.8875,-0.211
6.89,-0.174
6.8925,-0.13
6.895,-0.0866
6.8975,-0.0477
6.9,-0.0164
6.9025,0.0055
6.905,0.0198
6.9075,0.0291
6.91,0.0351
6.9125,0.0391
6.915,0.0422
6.9175,0.0452
6.92,0.0486
6.9225,0.0526
6.925,0.0571
6.9275,0.062
6.93,0.0673
6.9325,0.0733
6.935,0.08
6.9375,0.0875
6.94,0.0958
6.9425,0.105
6.945,0.115
6.9475,0.126
6.95,0.137
6.9525,0.15
6.955,0.164
6.9575,0.178
6.96,0.194
6.9625,0.21
6.965,0.227
6.9675,0.244
6.97,0.262
6.9725,0.281
6.975,0.299
6.9775,0.318
6.98,0.336
6.9825,0.354
6.985,0.371
6.9875,0.388
6.99,0.404
6.9925,0.42
6.995,0.433
6.9975,0.446
7,0.457
7.0025,0.466
7.005,0.474
7.0075,0.479
7.01,0.482
7.0125,0.483
7.015,0.482
7.0175,0.479
7.02,0.474
7.0225,0.467
7.025,0.458
7.0275,0.447
7.03,0.435
7.0325,0.421
7.035,0.406
7.0375,0.389
7.04,0.372
7.0425,0.354
7.045,0.335
7.0475,0.315
7.05,0.296
7.0525,0.276
7.055,0.257
7.0575,0.239
7.06,0.22
7.0625,0.203
7.065,0.186
7.0675,0.17
7.07,0.154
7.0725,0.14
7.075,0.127
7.0775,0.114
7.08,0.103
7.0825,0.0921
7.085,0.0827
7.0875,0.0741
7.09,0.0666
7.0925,0.0599
7.095,0.054
7.0975,0.0489
7.1,0.0445
7.1025,0.0406
7.105,0.0374
7.1075,0.0346
7.11,0.0323
7.1125,0.0304
7.115,0.0289
7.1175,0.0277
7.12,0.0268
7.1225,0.0261
7.125,0.0256
7.1275,0.0253
7.13,0.0251
7.1325,0.0251
7.135,0.0251
7.1375,0.0251
7.14,0.0253
7.1425,0.0254
7.145,0.0255
7.1475,0.0257
7.15,0.0258
7.1525,0.026
7.155,0.0261
7.1575,0.0262
7.16,0.0262
7.1625,0.0263
7.165,0.0263
7.1675,0.0262
7.17,0.0261
7.1725,0.026
7.175,0.0259
7.1775,0.0258
7.18,0.0256
7.1825,0.0255
7.185,0.0254
7.1875,0.0252
7.19,0.0251
7.1925,0.0251
7.195,0.0251
7.1975,0.0252
7.2,0.0253
7.2025,0.0256
7.205,0.0259
7.2075,0.0265
7.21,0.0271
7.2125,0.028
7.215,0.029
7.2175,0.0302
7.22,0.0319
7.2225,0.034
7.225,0.0367
7.2275,0.0401
7.23,0.0442
7.2325,0.0492
7.235,0.0552
7.2375,0.0623
7.24,0.0705
7.2425,0.0799
7.245,0.0907
7.2475,0.103
7.25,0.116
7.2525,0.132
7.255,0.149
7.2575,0.167
7.26,0.187
7.2625,0.206
7.265,0.226
7.2675,0.246
7.27,0.265
7.2725,0.283
7.275,0.299
7.2775,0.313
7.28,0.325
7.2825,0.335
7.285,0.342
7.2875,0.345
7.29,0.345
7.2925,0.341
7.295,0.333
7.2975,0.322
7.3,0.309
7.3025,0.293
7.305,0.276
7.3075,0.258
7.31,0.239
7.3125,0.221
7.315,0.202
7.3175,0.184
7.32,0.167
7.3225,0.15
7.325,0.135
7.3275,0.122
7.33,0.109
7.3325,0.0985
7.335,0.0893
7.3375,0.0822
7.34,0.0785
7.3425,0.0758
7.345,0.0719
7.3475,0.0653
7.35,0.0549
7.3525,0.0403
7.355,0.0212
7.3575,-0.0017
7.36,-0.0275
7.3625,-0.0546
7.365,-0.0811
7.3675,-0.104
7.37,-0.121
7.3725,-0.119
7.375,-0.086
7.3775,-0.0148
7.38,0.0976
7.3825,0.249
7.385,0.433
7.3875,0.638
7.39,0.846
7.3925,1.03
7.395,1.15
7.3975,1.2
7.4,1.15
7.4025,1.02
7.405,0.832
7.4075,0.611
7.41,0.385
7.4125,0.177
7.415,0.0018
7.4175,-0.131
7.42,-0.218
7.4225,-0.263
7.425,-0.27
7.4275,-0.248
7.43,-0.211
7.4325,-0.165
7.435,-0.12
7.4375,-0.0793
7.44,-0.0464
7.4425,-0.0222
7.445,-0.0054
7.4475,0.0071
7.45,0.0164
7.4525,0.0232
7.455,0.0282
7.4575,0.0319
7.46,0.0349
7.4625,0.0375
7.465,0.0403
7.4675,0.0435
7.47,0.0474
7.4725,0.0522
7.475,0.058
7.4775,0.065
7.48,0.073
7.4825,0.0822
7.485,0.0922
7.4875,0.103
7.49,0.114
7.4925,0.127
7.495,0.14
7.4975,0.153
7.5,0.168
7.5025,0.184
7.505,0.2
7.5075,0.217
7.51,0.234
7.5125,0.252
7.515,0.27
7.5175,0.289
7.52,0.307
7.5225,0.326
7.525,0.344
7.5275,0.362
7.53,0.379
7.5325,0.395
7.535,0.411
7.5375,0.425
7.54,0.438
7.5425,0.45
7.545,0.459
7.5475,0.467
7.55,0.473
7.5525,0.477
7.555,0.48
7.5575,0.48
7.56,0.477
7.5625,0.473
7.565,0.467
7.5675,0.459
7.57,0.449
7.5725,0.438
7.575,0.424
7.5775,0.41
7.58,0.394
7.5825,0.377
7.585,0.359
7.5875,0.34
7.59,0.321
7.5925,0.302
7.595,0.282
7.5975,0.263
7.6,0.243
7.6025,0.224
7.605,0.206
7.6075,0.188
7.61,0.17
7.6125,0.154
7.615,0.138
7.6175,0.123
7.62,0.109
7.6225,0.0959
7.625,0.0838
7.6275,0.0726
7.63,0.0623
7.6325,0.0531
7.635,0.0447
7.6375,0.0372
7.64,0.0305
7.6425,0.0245
7.645,0.0191
7.6475,0.0144
7.65,0.0103
7.6525,0.0066
7.655,0.0035
7.6575,0.0007
7.66,-0.0016
7.6625,-0.0036
7.665,-0.0054
7.6675,-0.0068
7.67,-0.008
7.6725,-0.0089
7.675,-0.0097
7.6775,-0.0104
7.68,-0.0109
7.6825,-0.0113
7.685,-0.0116
7.6875,-0.0118
7.69,-0.0119
7.6925,-0.012
7.695,-0.0121
7.6975,-0.0121
7.7,-0.0121
7.7025,-0.0121
7.705,-0.012
7.7075,-0.0119
7.71,-0.0118
7.7125,-0.0117
7.715,-0.0115
7.7175,-0.0114
7.72,-0.0112
7.7225,-0.0111
7.725,-0.0109
7.7275,-0.0108
7.73,-0.0107
7.7325,-0.0106
7.735,-0.0104
7.7375,-0.0103
7.74,-0.0102
7.7425,-0.01
7.745,-0.0098
7.7475,-0.0096
7.75,-0.0093
7.7525,-0.0089
7.755,-0.0085
7.7575,-0.008
7.76,-0.0074
7.7625,-0.0067
7.765,-0.0059
7.7675,-0.005
7.77,-0.0038
7.7725,-0.0022
7.775,-0.0002
7.7775,0.0023
7.78,0.0055
7.7825,0.0095
7.785,0.0143
7.7875,0.0201
7.79,0.0269
7.7925,0.0349
7.795,0.0441
7.7975,0.0545
7.8,0.0664
7.8025,0.0797
7.805,0.0946
7.8075,0.111
7.81,0.128
7.8125,0.146
7.815,0.164
7.8175,0.182
7.82,0.2
7.8225,0.217
7.825,0.232
7.8275,0.246
7.83,0.258
7.8325,0.268
7.835,0.275
7.8375,0.279
7.84,0.279
7.8425,0.276
7.845,0.27
7.8475,0.26
7.85,0.248
7.8525,0.234
7.855,0.217
7.8575,0.2
7.86,0.182
7.8625,0.163
7.865,0.143
7.8675,0.125
7.87,0.106
7.8725,0.0884
7.875,0.0718
7.8775,0.0565
7.88,0.0427
7.8825,0.0306
7.885,0.0197
7.8875,0.0104
7.89,0.0026
7.8925,-0.0039
7.895,-0.0094
7.8975,-0.0144
7.9,-0.0195
7.9025,-0.0256
7.905,-0.0337
7.9075,-0.045
7.91,-0.0608
7.9125,-0.0827
7.915,-0.11
7.9175,-0.141
7.92,-0.168
7.9225,-0.187
7.925,-0.191
7.9275,-0.174
7.93,-0.127
7.9325,-0.0426
7.935,0.0809
7.9375,0.243
7.94,0.435
7.9425,0.644
7.945,0.848
7.9475,1.02
7.95,1.13
7.9525,1.15
7.955,1.09
7.9575,0.945
7.96,0.747
7.9625,0.523
7.965,0.298
7.9675,0.0944
7.97,-0.0742
7.9725,-0.2
7.975,-0.281
7.9775,-0.319
7.98,-0.323
7.9825,-0.304
7.985,-0.269
7.9875,-0.225
7.99,-0.18
7.9925,-0.138
7.995,-0.104
7.9975,-0.0806
8,-0.0647
8.0025,-0.0542
8.005,-0.0473
8.0075,-0.0427
8.01,-0.0391
8.0125,-0.0358
8.015,-0.0324
8.0175,-0.0288
8.02,-0.0249
8.0225,-0.0205
8.025,-0.0155
8.0275,-0.0099
8.03,-0.0037
8.0325,0.0032
8.035,0.0109
8.0375,0.0193
8.04,0.0285
8.0425,0.0386
8.045,0.0495
8.0475,0.0612
8.05,0.0738
8.0525,0.0872
8.055,0.101
8.0575,0.117
8.06,0.133
8.0625,0.15
8.065,0.167
8.0675,0.185
8.07,0.203
8.0725,0.221
8.075,0.239
8.0775,0.257
8.08,0.275
8.0825,0.292
8.085,0.308
8.0875,0.324
8.09,0.339
8.0925,0.352
8.095,0.365
8.0975,0.376
8.1,0.386
8.1025,0.394
8.105,0.4
8.1075,0.405
8.11,0.408
8.1125,0.408
8.115,0.407
8.1175,0.403
8.12,0.397
8.1225,0.389
8.125,0.379
8.1275,0.368
8.13,0.355
8.1325,0.341
8.135,0.325
8.1375,0.309
8.14,0.292
8.1425,0.274
8.145,0.255
8.1475,0.236
8.15,0.217
8.1525,0.197
8.155,0.178
8.1575,0.159
8.16,0.14
8.1625,0.121
8.165,0.103
8.1675,0.0853
8.17,0.0687
8.1725,0.0529
8.175,0.0382
8.1775,0.0246
8.18,0.0119
8.1825,0.0001
8.185,-0.0107
8.1875,-0.0207
8.19,-0.0298
8.1925,-0.0381
8.195,-0.0456
8.1975,-0.0525
8.2,-0.0586
8.2025,-0.064
8.205,-0.0688
8.2075,-0.0731
8.21,-0.0768
8.2125,-0.08
8.215,-0.0828
8.2175,-0.0851
8.22,-0.0871
8.2225,-0.0887
8.225,-0.0901
8.2275,-0.0913
8.23,-0.0922
8.2325,-0.093
8.235,-0.0938
8.2375,-0.0944
8.24,-0.0949
8.2425,-0.0953
8.245,-0.0957
8.2475,-0.096
8.25,-0.0963
8.2525,-0.0964
8.255,-0.0966
8.2575,-0.0967
8.26,-0.0968
8.2625,-0.0969
8.265,-0.097
8.2675,-0.0971
8.27,-0.0971
8.2725,-0.0971
8.275,-0.0972
8.2775,-0.0972
8.28,-0.0972
8.2825,-0.0972
8.285,-0.0972
8.2875,-0.0971
8.29,-0.0971
8.2925,-0.097
8.295,-0.0969
8.2975,-0.0967
8.3,-0.0965
8.3025,-0.0963
8.305,-0.096
8.3075,-0.0956
8.31,-0.0953
8.3125,-0.0949
8.315,-0.0944
8.3175,-0.0938
8.32,-0.0931
8.3225,-0.0922
8.325,-0.091
8.3275,-0.0896
8.33,-0.0878
8.3325,-0.0856
8.335,-0.0828
8.3375,-0.0795
8.34,-0.0755
8.3425,-0.0709
8.345,-0.0653
8.3475,-0.0587
8.35,-0.0509
8.3525,-0.0417
8.355,-0.031
8.3575,-0.0189
8.36,-0.0053
8.3625,0.0096
8.365,0.0258
8.3675,0.043
8.37,0.0611
8.3725,0.0798
8.375,0.0988
8.3775,0.118
8.38,0.136
8.3825,0.154
8.385,0.17
8.3875,0.184
8.39,0.196
8.3925,0.205
8.395,0.211
8.3975,0.214
8.4,0.213
8.4025,0.21
8.405,0.203
8.4075,0.193
8.41,0.181
8.4125,0.166
8.415,0.15
8.4175,0.132
8.42,0.113
8.4225,0.0936
8.425,0.0742
8.4275,0.055
8.43,0.0365
8.4325,0.019
8.435,0.0026
8.4375,-0.0127
8.44,-0.0267
8.4425,-0.0391
8.445,-0.0498
8.4475,-0.0588
8.45,-0.0661
8.4525,-0.0722
8.455,-0.0773
8.4575,-0.0822
8.46,-0.0876
8.4625,-0.0943
8.465,-0.103
8.4675,-0.116
8.47,-0.134
8.4725,-0.168
8.475,-0.212
8.4775,-0.254
8.48,-0.285
8.4825,-0.298
8.485,-0.288
8.4875,-0.249
8.49,-0.18
8.4925,-0.0805
8.495,0.0494
8.4975,0.207
8.5,0.387
8.5025,0.584
8.505,0.788
8.5075,0.962
8.51,1.07
8.5125,1.1
8.515,1.04
8.5175,0.906
8.52,0.711
8.5225,0.487
8.525,0.263
8.5275,0.062
8.53,-0.102
8.5325,-0.22
8.535,-0.293
8.5375,-0.322
8.54,-0.317
8.5425,-0.29
8.545,-0.25
8.5475,-0.205
8.55,-0.162
8.5525,-0.124
8.555,-0.0945
8.5575,-0.0736
8.56,-0.0597
8.5625,-0.0503
8.565,-0.0442
8.5675,-0.0401
8.57,-0.037
8.5725,-0.0342
8.575,-0.031
8.5775,-0.0273
8.58,-0.0228
8.5825,-0.0176
8.585,-0.012
8.5875,-0.006
8.59,0.0006
8.5925,0.008
8.595,0.016
8.5975,0.0249
8.6,0.0346
8.6025,0.0452
8.605,0.0566
8.6075,0.0689
8.61,0.0821
8.6125,0.096
8.615,0.111
8.6175,0.126
8.62,0.143
8.6225,0.16
8.625,0.177
8.6275,0.195
8.63,0.213
8.6325,0.231
8.635,0.249
8.6375,0.266
8.64,0.283
8.6425,0.299
8.645,0.314
8.6475,0.328
8.65,0.341
8.6525,0.353
8.655,0.363
8.6575,0.371
8.66,0.378
8.6625,0.383
8.665,0.386
8.6675,0.387
8.67,0.386
8.6725,0.382
8.675,0.377
8.6775,0.369
8.68,0.359
8.6825,0.348
8.685,0.335
8.6875,0.32
8.69,0.305
8.6925,0.288
8.695,0.271
8.6975,0.253
8.7,0.235
8.7025,0.216
8.705,0.197
8.7075,0.178
8.71,0.159
8.7125,0.14
8.715,0.122
8.7175,0.104
8.72,0.087
8.7225,0.0705
8.725,0.0547
8.7275,0.0399
8.73,0.0261
8.7325,0.0134
8.735,0.0017
8.7375,-0.0089
8.74,-0.0185
8.7425,-0.0272
8.745,-0.035
8.7475,-0.042
8.75,-0.0482
8.7525,-0.0537
8.755,-0.0585
8.7575,-0.0627
8.76,-0.0663
8.7625,-0.0693
8.765,-0.0719
8.7675,-0.074
8.77,-0.0757
8.7725,-0.077
8.775,-0.078
8.7775,-0.0787
8.78,-0.0791
8.7825,-0.0794
8.785,-0.0794
8.7875,-0.0794
8.79,-0.0792
8.7925,-0.0789
8.795,-0.0786
8.7975,-0.0783
8.8,-0.0778
8.8025,-0.0774
8.805,-0.0769
8.8075,-0.0763
8.81,-0.0758
8.8125,-0.0752
8.815,-0.0746
8.8175,-0.074
8.82,-0.0734
8.8225,-0.0728
8.825,-0.0722
8.8275,-0.0716
8.83,-0.071
8.8325,-0.0704
8.835,-0.0698
8.8375,-0.0692
8.84,-0.0686
8.8425,-0.0681
8.845,-0.0675
8.8475,-0.0669
8.85,-0.0663
8.8525,-0.0657
8.855,-0.0651
8.8575,-0.0644
8.86,-0.0637
8.8625,-0.063
8.865,-0.0622
8.8675,-0.0613
8.87,-0.0603
8.8725,-0.059
8.875,-0.0576
8.8775,-0.0559
8.88,-0.0538
8.8825,-0.0512
8.885,-0.0481
8.8875,-0.0443
8.89,-0.0398
8.8925,-0.0344
8.895,-0.0279
8.8975,-0.0204
8.9,-0.0114
8.9025,-0.0011
8.905,0.0107
8.9075,0.024
8.91,0.0387
8.9125,0.0547
8.915,0.0719
8.9175,0.0899
8.92,0.109
8.9225,0.128
8.925,0.147
8.9275,0.165
8.93,0.182
8.9325,0.198
8.935,0.212
8.9375,0.223
8.94,0.232
8.9425,0.237
8.945,0.239
8.9475,0.238
8.95,0.233
8.9525,0.226
8.955,0.215
8.9575,0.202
8.96,0.187
8.9625,0.17
8.965,0.152
8.9675,0.133
8.97,0.114
8.9725,0.0956
8.975,0.0777
8.9775,0.0608
8.98,0.0451
8.9825,0.0308
8.985,0.018
8.9875,0.0067
8.99,-0.003
8.9925,-0.0112
8.995,-0.0181
8.9975,-0.0239
9,-0.0286
9.0025,-0.0327
9.005,-0.0376
9.0075,-0.0443
9.01,-0.054
9.0125,-0.0676
9.015,-0.0856
9.0175,-0.109
9.02,-0.138
9.0225,-0.169
9.025,-0.194
9.0275,-0.205
9.03,-0.196
9.0325,-0.161
9.035,-0.0919
9.0375,0.0148
9.04,0.164
9.0425,0.351
9.045,0.558
9.0475,0.762
9.05,0.941
9.0525,1.07
9.055,1.12
9.0575,1.07
9.06,0.938
9.0625,0.753
9.065,0.536
9.0675,0.312
9.07,0.107
9.0725,-0.0579
9.075,-0.178
9.0775,-0.253
9.08,-0.286
9.0825,-0.283
9.085,-0.254
9.0875,-0.212
9.09,-0.165
9.0925,-0.12
9.095,-0.0822
9.0975,-0.0536
9.1,-0.0345
9.1025,-0.0229
9.105,-0.0154
9.1075,-0.01
9.11,-0.006
9.1125,-0.0027
9.115,0.0005
9.1175,0.0039
9.12,0.008
9.1225,0.0127
9.125,0.0179
9.1275,0.0237
9.13,0.0301
9.1325,0.0374
9.135,0.0454
9.1375,0.0543
9.14,0.064
9.1425,0.0747
9.145,0.0863
9.1475,0.0988
9.15,0.112
9.1525,0.127
9.155,0.142
9.1575,0.158
9.16,0.175
9.1625,0.193
9.165,0.211
9.1675,0.23
9.17,0.249
9.1725,0.268
9.175,0.286
9.1775,0.305
9.18,0.322
9.1825,0.339
9.185,0.355
9.1875,0.371
9.19,0.384
9.1925,0.397
9.195,0.408
9.1975,0.418
9.2,0.425
9.2025,0.431
9.205,0.435
9.2075,0.437
9.21,0.437
9.2125,0.434
9.215,0.429
9.2175,0.421
9.22,0.412
9.2225,0.401
9.225,0.388
9.2275,0.374
9.23,0.359
9.2325,0.342
9.235,0.325
9.2375,0.307
9.24,0.289
9.2425,0.27
9.245,0.251
9.2475,0.232
9.25,0.214
9.2525,0.195
9.255,0.177
9.2575,0.159
9.26,0.142
9.2625,0.126
9.265,0.111
9.2675,0.0965
9.27,0.0832
9.2725,0.071
9.275,0.0599
9.2775,0.0498
9.28,0.0407
9.2825,0.0326
9.285,0.0253
9.2875,0.0188
9.29,0.0132
9.2925,0.0082
9.295,0.004
9.2975,0.0004
9.3,-0.0027
9.3025,-0.0052
9.305,-0.0072
9.3075,-0.0088
9.31,-0.0099
9.3125,-0.0108
9.315,-0.0113
9.3175,-0.0115
9.32,-0.0115
9.3225,-0.0114
9.325,-0.011
9.3275,-0.0106
9.33,-0.0101
9.3325,-0.0096
9.335,-0.009
9.3375,-0.0083
9.34,-0.0077
9.3425,-0.0069
9.345,-0.0062
9.3475,-0.0055
9.35,-0.0047
9.3525,-0.004
9.355,-0.0033
9.3575,-0.0026
9.36,-0.0019
9.3625,-0.0013
9.365,-0.0006
9.3675,0
9.37,0.0006
9.3725,0.0011
9.375,0.0017
9.3775,0.0023
9.38,0.0028
9.3825,0.0034
9.385,0.0039
9.3875,0.0045
9.39,0.0051
9.3925,0.0057
9.395,0.0064
9.3975,0.0071
9.4,0.0079
9.4025,0.0087
9.405,0.0097
9.4075,0.0108
9.41,0.0121
9.4125,0.0137
9.415,0.0156
9.4175,0.018
9.42,0.0209
9.4225,0.0245
9.425,0.0289
9.4275,0.0341
9.43,0.0404
9.4325,0.0479
9.435,0.0565
9.4375,0.0666
9.44,0.0782
9.4425,0.0913
9.445,0.106
9.4475,0.122
9.45,0.139
9.4525,0.157
9.455,0.176
9.4575,0.196
9.46,0.215
9.4625,0.234
9.465,0.252
9.4675,0.268
9.47,0.282
9.4725,0.294
9.475,0.303
9.4775,0.308
9.48,0.311
9.4825,0.31
9.485,0.305
9.4875,0.298
9.49,0.287
9.4925,0.274
9.495,0.258
9.4975,0.241
9.5,0.222
9.5025,0.203
9.505,0.185
9.5075,0.166
9.51,0.148
9.5125,0.131
9.515,0.116
9.5175,0.102
9.52,0.0895
9.5225,0.0787
9.525,0.0694
9.5275,0.0615
9.53,0.0549
9.5325,0.0493
9.535,0.0445
9.5375,0.04
9.54,0.0348
9.5425,0.0271
9.545,0.0158
9.5475,-0.0001
9.55,-0.021
9.5525,-0.0474
9.555,-0.0776
9.5575,-0.105
9.56,-0.123
9.5625,-0.124
9.565,-0.101
9.5675,-0.045
9.57,0.0497
9.5725,0.186
9.575,0.361
9.5775,0.562
9.58,0.771
9.5825,0.964
9.585,1.11
9.5875,1.17
9.59,1.14
9.5925,1.03
9.595,0.863
9.5975,0.65
9.6,0.42
9.6025,0.204
9.605,0.0246
9.6075,-0.113
9.61,-0.207
9.6125,-0.258
9.615,-0.271
9.6175,-0.253
9.62,-0.215
9.6225,-0.169
9.625,-0.121
9.6275,-0.0783
9.63,-0.0433
9.6325,-0.0177
9.635,-0.0007
9.6375,0.0105
9.64,0.0183
9.6425,0.024
9.645,0.0283
9.6475,0.0321
9.65,0.036
9.6525,0.0402
9.655,0.045
9.6575,0.0503
9.66,0.0561
9.6625,0.0624
9.665,0.0694
9.6675,0.0771
9.67,0.0855
9.6725,0.0947
9.675,0.105
9.6775,0.116
9.68,0.127
9.6825,0.14
9.685,0.153
9.6875,0.167
9.69,0.182
9.6925,0.198
9.695,0.215
9.6975,0.232
9.7,0.25
9.7025,0.268
9.705,0.287
9.7075,0.305
9.71,0.323
9.7125,0.341
9.715,0.359
9.7175,0.376
9.72,0.393
9.7225,0.409
9.725,0.423
9.7275,0.437
9.73,0.449
9.7325,0.46
9.735,0.469
9.7375,0.476
9.74,0.481
9.7425,0.484
9.745,0.485
9.7475,0.484
9.75,0.48
9.7525,0.475
9.755,0.468
9.7575,0.459
9.76,0.449
9.7625,0.436
9.765,0.423
9.7675,0.408
9.77,0.392
9.7725,0.374
9.775,0.356
9.7775,0.338
9.78,0.318
9.7825,0.299
9.785,0.279
9.7875,0.26
9.79,0.24
9.7925,0.222
9.795,0.204
9.7975,0.186
9.8,0.17
9.8025,0.154
9.805,0.139
9.8075,0.125
9.81,0.112
9.8125,0.1
9.815,0.0888
9.8175,0.0785
9.82,0.0692
9.8225,0.0607
9.825,0.0532
9.8275,0.0465
9.83,0.0406
9.8325,0.0355
9.835,0.0311
9.8375,0.0272
9.84,0.0239
9.8425,0.021
9.845,0.0186
9.8475,0.0165
9.85,0.0148
9.8525,0.0134
9.855,0.0123
9.8575,0.0114
9.86,0.0108
9.8625,0.0103
9.865,0.0099
9.8675,0.0097
9.87,0.0096
9.8725,0.0095
9.875,0.0096
9.8775,0.0097
9.88,0.0098
9.8825,0.0099
9.885,0.0101
9.8875,0.0104
9.89,0.0106
9.8925,0.0109
9.895,0.0112
9.8975,0.0116
9.9,0.012
9.9025,0.0123
9.905,0.0127
9.9075,0.0132
9.91,0.0136
9.9125,0.014
9.915,0.0144
9.9175,0.0149
9.92,0.0154
9.9225,0.0159
9.925,0.0164
9.9275,0.0169
9.93,0.0176
9.9325,0.0182
9.935,0.0189
9.9375,0.0197
9.94,0.0206
9.9425,0.0216
9.945,0.0227
9.9475,0.0239
9.95,0.0252
9.9525,0.0267
9.955,0.0284
9.9575,0.0304
9.96,0.0329
9.9625,0.0359
9.965,0.0395
9.9675,0.0439
9.97,0.0491
9.9725,0.0552
9.975,0.0624
9.9775,0.0706
9.98,0.08
9.9825,0.0908
9.985,0.103
9.9875,0.117
9.99,0.132
9.9925,0.149
9.995,0.167
9.9975,0.185
10,0.204
10.0025,0.223
10.005,0.242
10.0075,0.259
10.01,0.276
10.0125,0.291
10.015,0.304
10.0175,0.315
10.02,0.323
10.0225,0.328
10.025,0.33
10.0275,0.329
10.03,0.324
10.0325,0.315
10.035,0.303
10.0375,0.289
10.04,0.273
10.0425,0.256
10.045,0.238
10.0475,0.22
10.05,0.201
10.0525,0.182
10.055,0.164
10.0575,0.147
10.06,0.13
10.0625,0.115
10.065,0.101
10.0675,0.0886
10.07,0.0779
10.0725,0.0686
10.075,0.0606
10.0775,0.0539
10.08,0.0482
10.0825,0.0431
10.085,0.0378
10.0875,0.0313
10.09,0.0226
10.0925,0.0103
10.095,-0.0071
10.0975,-0.0302
10.1,-0.0579
10.1025,-0.0877
10.105,-0.115
10.1075,-0.134
10.11,-0.136
10.1125,-0.114
10.115,-0.0593
10.1175,0.0348
10.12,0.17
10.1225,0.341
10.125,0.54
10.1275,0.752
10.13,0.952
10.1325,1.1
10.135,1.18
10.1375,1.18
10.14,1.09
10.1425,0.927
10.145,0.719
10.1475,0.492
10.15,0.271
10.1525,0.0761
10.155,-0.081
10.1575,-0.194
10.16,-0.263
10.1625,-0.289
10.165,-0.283
10.1675,-0.256
10.17,-0.217
10.1725,-0.173
10.175,-0.13
10.1775,-0.0927
10.18,-0.0626
10.1825,-0.0408
10.185,-0.0262
10.1875,-0.0154
10.19,-0.0071
10.1925,-0.0007
10.195,0.0043
10.1975,0.0083
10.2,0.0117
10.2025,0.0149
10.205,0.0182
10.2075,0.0219
10.21,0.0261
10.2125,0.0311
10.215,0.037
10.2175,0.0439
10.22,0.0518
10.2225,0.0608
10.225,0.0708
10.2275,0.0817
10.23,0.0935
10.2325,0.106
10.235,0.119
10.2375,0.133
10.24,0.148
10.2425,0.163
10.245,0.18
10.2475,0.197
10.25,0.214
10.2525,0.232
10.255,0.25
10.2575,0.269
10.26,0.287
10.2625,0.306
10.265,0.324
10.2675,0.342
10.27,0.359
10.2725,0.375
10.275,0.391
10.2775,0.405
10.28,0.418
10.2825,0.43
10.285,0.44
10.2875,0.448
10.29,0.454
10.2925,0.459
10.295,0.461
10.2975,0.462
10.3,0.46
10.3025,0.457
10.305,0.451
10.3075,0.444
10.31,0.434
10.3125,0.423
10.315,0.411
10.3175,0.397
10.32,0.381
10.3225,0.364
10.325,0.347
10.3275,0.328
10.33,0.31
10.3325,0.29
10.335,0.271
10.3375,0.251
10.34,0.232
10.3425,0.213
10.345,0.194
10.3475,0.176
10.35,0.158
10.3525,0.141
10.355,0.125
10.3575,0.11
10.36,0.0956
10.3625,0.0821
10.365,0.0696
10.3675,0.0581
10.37,0.0474
10.3725,0.0377
10.375,0.0288
10.3775,0.0207
10.38,0.0134
10.3825,0.0068
10.385,0.001
10.3875,-0.0042
10.39,-0.0089
10.3925,-0.013
10.395,-0.0166
10.3975,-0.0198
10.4,-0.0226
10.4025,-0.0251
10.405,-0.0272
10.4075,-0.0291
10.41,-0.0307
10.4125,-0.0322
10.415,-0.0334
10.4175,-0.0345
10.42,-0.0355
10.4225,-0.0363
10.425,-0.037
10.4275,-0.0377
10.43,-0.0383
10.4325,-0.0388
10.435,-0.0393
10.4375,-0.0397
10.44,-0.0401
10.4425,-0.0404
10.445,-0.0407
10.4475,-0.041
10.45,-0.0412
10.4525,-0.0414
10.455,-0.0416
10.4575,-0.0418
10.46,-0.0419
10.4625,-0.0421
10.465,-0.0422
10.4675,-0.0423
10.47,-0.0424
10.4725,-0.0425
10.475,-0.0426
10.4775,-0.0426
10.48,-0.0426
10.4825,-0.0426
10.485,-0.0426
10.4875,-0.0425
10.49,-0.0423
10.4925,-0.0421
10.495,-0.0418
10.4975,-0.0415
10.5,-0.0411
10.5025,-0.0405
10.505,-0.0399
10.5075,-0.0391
10.51,-0.0383
10.5125,-0.0372
10.515,-0.0358
10.5175,-0.0339
10.52,-0.0314
10.5225,-0.0283
10.525,-0.0244
10.5275,-0.0196
10.53,-0.0138
10.5325,-0.0071
10.535,0.0008
10.5375,0.0098
10.54,0.0201
10.5425,0.0317
10.545,0.0445
10.5475,0.0588
10.55,0.0745
10.5525,0.0919
10.555,0.111
10.5575,0.13
10.56,0.149
10.5625,0.168
10.565,0.186
10.5675,0.203
10.57,0.218
10.5725,0.232
10.575,0.243
10.5775,0.251
10.58,0.257
10.5825,0.259
10.585,0.259
10.5875,0.256
10.59,0.25
10.5925,0.241
10.595,0.229
10.5975,0.214
10.6,0.197
10.6025,0.179
10.605,0.16
10.6075,0.141
10.61,0.121
10.6125,0.102
10.615,0.0841
10.6175,0.0667
10.62,0.0505
10.6225,0.0357
10.625,0.0222
10.6275,0.0102
10.63,-0.0003
10.6325,-0.0095
10.635,-0.0172
10.6375,-0.0234
10.64,-0.0289
10.6425,-0.0342
10.645,-0.0403
10.6475,-0.0477
10.65,-0.0574
10.6525,-0.07
10.655,-0.0863
10.6575,-0.107
10.66,-0.133
10.6625,-0.164
10.665,-0.194
10.6675,-0.215
10.67,-0.221
10.6725,-0.205
10.675,-0.16
10.6775,-0.082
10.68,0.0348
10.6825,0.194
10.685,0.385
10.6875,0.591
10.69,0.792
10.6925,0.967
10.695,1.09
10.6975,1.14
10.7,1.09
10.7025,0.96
10.705,0.777
10.7075,0.563
10.71,0.339
10.7125,0.127
10.715,-0.05
10.7175,-0.183
10.72,-0.272
10.7225,-0.32
10.725,-0.332
10.7275,-0.314
10.73,-0.276
10.7325,-0.231
10.735,-0.185
10.7375,-0.144
10.74,-0.111
10.7425,-0.0861
10.745,-0.0698
10.7475,-0.0603
10.75,-0.0544
10.7525,-0.05
10.755,-0.0467
10.7575,-0.044
10.76,-0.0413
10.7625,-0.0383
10.765,-0.0348
10.7675,-0.0307
10.77,-0.0259
10.7725,-0.0206
10.775,-0.0146
10.7775,-0.0079
10.78,-0.0004
10.7825,0.0079
10.785,0.0171
10.7875,0.0272
10.79,0.0382
10.7925,0.0501
10.795,0.0628
10.7975,0.0765
10.8,0.091
10.8025,0.106
10.805,0.122
10.8075,0.139
10.81,0.157
10.8125,0.175
10.815,0.193
10.8175,0.212
10.82,0.23
10.8225,0.249
10.825,0.267
10.8275,0.284
10.83,0.301
10.8325,0.316
10.835,0.331
10.8375,0.345
10.84,0.357
10.8425,0.367
10.845,0.377
10.8475,0.384
10.85,0.39
10.8525,0.393
10.855,0.395
10.8575,0.395
10.86,0.392
10.8625,0.388
10.865,0.381
10.8675,0.372
10.87,0.361
10.8725,0.348
10.875,0.335
10.8775,0.319
10.88,0.303
10.8825,0.286
10.885,0.268
10.8875,0.25
10.89,0.231
10.8925,0.211
10.895,0.192
10.8975,0.173
10.9,0.153
10.9025,0.134
10.905,0.116
10.9075,0.0976
10.91,0.08
10.9125,0.0632
10.915,0.0473
10.9175,0.0322
10.92,0.0182
10.9225,0.0052
10.925,-0.0067
10.9275,-0.0176
10.93,-0.0276
10.9325,-0.0366
10.935,-0.0448
10.9375,-0.0523
10.94,-0.0589
10.9425,-0.0649
10.945,-0.0701
10.9475,-0.0748
10.95,-0.0789
10.9525,-0.0824
10.955,-0.0855
10.9575,-0.0881
10.96,-0.0903
10.9625,-0.0921
10.965,-0.0936
10.9675,-0.0949
10.97,-0.0958
10.9725,-0.0966
10.975,-0.0972
10.9775,-0.0977
10.98,-0.0981
10.9825,-0.0984
10.985,-0.0986
10.9875,-0.0988
10.99,-0.0989
10.9925,-0.099
10.995,-0.099
10.9975,-0.099
11,-0.099
11.0025,-0.0989
11.005,-0.0988
11.0075,-0.0987
11.01,-0.0985
11.0125,-0.0983
11.015,-0.0982
11.0175,-0.098
11.02,-0.0977
11.0225,-0.0975
11.025,-0.0973
11.0275,-0.097
11.03,-0.0967
11.0325,-0.0964
11.035,-0.0961
11.0375,-0.0958
11.04,-0.0954
11.0425,-0.095
11.045,-0.0946
11.0475,-0.0941
11.05,-0.0935
11.0525,-0.0929
11.055,-0.0923
11.0575,-0.0916
11.06,-0.0908
11.0625,-0.0898
11.065,-0.0887
11.0675,-0.0873
11.07,-0.0857
11.0725,-0.0837
11.075,-0.0813
11.0775,-0.0783
11.08,-0.0748
11.0825,-0.0705
11.085,-0.0653
11.0875,-0.0592
11.09,-0.0519
11.0925,-0.0434
11.095,-0.0335
11.0975,-0.0222
11.1,-0.0094
11.1025,0.0047
11.105,0.0201
11.1075,0.0366
11.11,0.0539
11.1125,0.072
11.115,0.0904
11.1175,0.109
11.12,0.127
11.1225,0.144
11.125,0.161
11.1275,0.175
11.13,0.187
11.1325,0.197
11.135,0.203
11.1375,0.206
11.14,0.206
11.1425,0.203
11.145,0.197
11.1475,0.187
11.15,0.175
11.1525,0.161
11.155,0.144
11.1575,0.126
11.16,0.107
11.1625,0.0873
11.165,0.0677
11.1675,0.0485
11.17,0.03
11.1725,0.0124
11.175,-0.0039
11.1775,-0.0188
11.18,-0.0322
11.1825,-0.0441
11.185,-0.0545
11.1875,-0.0635
11.19,-0.0711
11.1925,-0.0776
11.195,-0.0829
11.1975,-0.0876
11.2,-0.0931
11.2025,-0.101
11.205,-0.111
11.2075,-0.126
11.21,-0.144
11.2125,-0.167
11.215,-0.195
11.2175,-0.227
11.22,-0.256
11.2225,-0.273
11.225,-0.269
11.2275,-0.239
11.23,-0.178
11.2325,-0.0805
11.235,0.0536
11.2375,0.225
11.24,0.437
11.2425,0.658
11.245,0.852
11.2475,0.993
11.25,1.06
11.2525,1.05
11.255,0.959
11.2575,0.795
11.26,0.584
11.2625,0.359
11.265,0.144
11.2675,-0.0433
11.27,-0.191
11.2725,-0.292
11.275,-0.347
11.2775,-0.36
11.28,-0.342
11.2825,-0.306
11.285,-0.261
11.2875,-0.213
11.29,-0.17
11.2925,-0.135
11.295,-0.109
11.2975,-0.0929
11.3,-0.0835
11.3025,-0.0767
11.305,-0.0716
11.3075,-0.0677
11.31,-0.0644
11.3125,-0.061
11.315,-0.0574
11.3175,-0.0532
11.32,-0.0483
11.3225,-0.0429
11.325,-0.0369
11.3275,-0.0302
11.33,-0.0228
11.3325,-0.0146
11.335,-0.0055
11.3375,0.0044
11.34,0.0152
11.3425,0.027
11.345,0.0396
11.3475,0.0532
11.35,0.0676
11.3525,0.0829
11.355,0.0989
11.3575,0.116
11.36,0.133
11.3625,0.152
11.365,0.17
11.3675,0.189
11.37,0.209
11.3725,0.228
11.375,0.246
11.3775,0.264
11.38,0.282
11.3825,0.298
11.385,0.314
11.3875,0.328
11.39,0.341
11.3925,0.352
11.395,0.362
11.3975,0.37
11.4,0.377
11.4025,0.381
11.405,0.383
11.4075,0.384
11.41,0.382
11.4125,0.377
11.415,0.371
11.4175,0.362
11.42,0.351
11.4225,0.339
11.425,0.325
11.4275,0.31
11.43,0.294
11.4325,0.277
11.435,0.26
11.4375,0.242
11.44,0.223
11.4425,0.204
11.445,0.185
11.4475,0.166
11.45,0.148
11.4525,0.129
11.455,0.112
11.4575,0.0943
11.46,0.0776
11.4625,0.0617
11.465,0.0466
11.4675,0.0324
11.47,0.0192
11.4725,0.0071
11.475,-0.0039
11.4775,-0.0139
11.48,-0.023
11.4825,-0.0311
11.485,-0.0383
11.4875,-0.0448
11.49,-0.0505
11.4925,-0.0555
11.495,-0.0599
11.4975,-0.0636
11.5,-0.0669
11.5025,-0.0696
11.505,-0.0718
11.5075,-0.0736
11.51,-0.0751
11.5125,-0.0762
11.515,-0.077
11.5175,-0.0775
11.52,-0.0778
11.5225,-0.0779
11.525,-0.0778
11.5275,-0.0776
11.53,-0.0773
11.5325,-0.0768
11.535,-0.0763
11.5375,-0.0757
11.54,-0.075
11.5425,-0.0743
11.545,-0.0735
11.5475,-0.0726
11.55,-0.0718
11.5525,-0.0708
11.555,-0.0699
11.5575,-0.0689
11.56,-0.0679
11.5625,-0.0669
11.565,-0.0658
11.5675,-0.0648
11.57,-0.0637
11.5725,-0.0627
11.575,-0.0616
11.5775,-0.0606
11.58,-0.0595
11.5825,-0.0584
11.585,-0.0574
11.5875,-0.0563
11.59,-0.0552
11.5925,-0.0541
11.595,-0.0531
11.5975,-0.0519
11.6,-0.0508
11.6025,-0.0497
11.605,-0.0486
11.6075,-0.0476
11.61,-0.0464
11.6125,-0.045
11.615,-0.0432
11.6175,-0.041
11.62,-0.0383
11.6225,-0.0349
11.625,-0.0307
11.6275,-0.0257
11.63,-0.0198
11.6325,-0.0129
11.635,-0.005
11.6375,0.0042
11.64,0.0145
11.6425,0.026
11.645,0.039
11.6475,0.0532
11.65,0.069
11.6525,0.0861
11.655,0.104
11.6575,0.123
11.66,0.142
11.6625,0.161
11.665,0.179
11.6675,0.196
11.67,0.212
11.6725,0.225
11.675,0.236
11.6775,0.245
11.68,0.25
11.6825,0.252
11.685,0.251
11.6875,0.246
11.69,0.238
11.6925,0.227
11.695,0.214
11.6975,0.2
11.7,0.183
11.7025,0.166
11.705,0.148
11.7075,0.129
11.71,0.111
11.7125,0.0937
11.715,0.0772
11.7175,0.0618
11.72,0.0477
11.7225,0.0351
11.725,0.0242
11.7275,0.0152
11.73,0.0079
11.7325,0.0021
11.735,-0.0026
11.7375,-0.0068
11.74,-0.011
11.7425,-0.0161
11.745,-0.0231
11.7475,-0.0329
11.75,-0.047
11.7525,-0.0665
11.755,-0.0915
11.7575,-0.12
11.76,-0.149
11.7625,-0.173
11.765,-0.184
11.7675,-0.174
11.77,-0.136
11.7725,-0.0606
11.775,0.0571
11.7775,0.216
11.78,0.407
11.7825,0.615
11.785,0.82
11.7875,0.993
11.79,1.1
11.7925,1.13
11.795,1.07
11.7975,0.923
11.8,0.721
11.8025,0.495
11.805,0.273
11.8075,0.0742
11.81,-0.0883
11.8125,-0.206
11.815,-0.279
11.8175,-0.308
11.82,-0.304
11.8225,-0.275
11.825,-0.232
11.8275,-0.185
11.83,-0.14
11.8325,-0.103
11.835,-0.0741
11.8375,-0.0542
11.84,-0.0406
11.8425,-0.0313
11.845,-0.0251
11.8475,-0.0207
11.85,-0.0173
11.8525,-0.014
11.855,-0.0104
11.8575,-0.0061
11.86,-0.0011
11.8625,0.0048
11.865,0.011
11.8675,0.0178
11.87,0.0253
11.8725,0.0336
11.875,0.0427
11.8775,0.0526
11.88,0.0634
11.8825,0.0751
11.885,0.0877
11.8875,0.101
11.89,0.116
11.8925,0.131
11.895,0.147
11.8975,0.164
11.9,0.181
11.9025,0.2
11.905,0.218
11.9075,0.238
11.91,0.257
11.9125,0.276
11.915,0.295
11.9175,0.313
11.92,0.331
11.9225,0.349
11.925,0.365
11.9275,0.38
11.93,0.394
11.9325,0.407
11.935,0.419
11.9375,0.428
11.94,0.436
11.9425,0.442
11.945,0.446
11.9475,0.448
11.95,0.448
11.9525,0.445
11.955,0.44
11.9575,0.432
11.96,0.423
11.9625,0.412
11.965,0.399
11.9675,0.385
11.97,0.37
11.9725,0.354
11.975,0.338
11.9775,0.32
11.98,0.303
11.9825,0.285
11.985,0.266
11.9875,0.248
11.99,0.23
11.9925,0.212
11.995,0.195
11.9975,0.178
12,0.161
12.0025,0.146
12.005,0.13
12.0075,0.116
12.01,0.103
12.0125,0.09
12.015,0.0784
12.0175,0.0677
12.02,0.0581
12.0225,0.0495
12.025,0.0419
12.0275,0.0351
12.03,0.0292
12.0325,0.024
12.035,0.0195
12.0375,0.0157
12.04,0.0125
12.0425,0.0098
12.045,0.0076
12.0475,0.0058
12.05,0.0045
12.0525,0.0035
12.055,0.0027
12.0575,0.0023
12.06,0.0021
12.0625,0.0021
12.065,0.0023
12.0675,0.0027
12.07,0.0032
12.0725,0.0038
12.075,0.0044
12.0775,0.0052
12.08,0.006
12.0825,0.0068
12.085,0.0077
12.0875,0.0086
12.09,0.0096
12.0925,0.0105
12.095,0.0115
12.0975,0.0125
12.1,0.0135
12.1025,0.0145
12.105,0.0155
12.1075,0.0165
12.11,0.0175
12.1125,0.0185
12.115,0.0194
12.1175,0.0203
12.12,0.0212
12.1225,0.022
12.125,0.0229
12.1275,0.0237
12.13,0.0245
12.1325,0.0254
12.135,0.0262
12.1375,0.027
12.14,0.0279
12.1425,0.0288
12.145,0.0298
12.1475,0.0309
12.15,0.032
12.1525,0.0333
12.155,0.0346
12.1575,0.0362
12.16,0.0382
12.1625,0.0406
12.165,0.0436
12.1675,0.0473
12.17,0.0518
12.1725,0.0572
12.175,0.0636
12.1775,0.0711
12.18,0.0797
12.1825,0.0896
12.185,0.101
12.1875,0.114
12.19,0.128
12.1925,0.144
12.195,0.161
12.1975,0.179
12.2,0.198
12.2025,0.217
12.205,0.236
12.2075,0.254
12.21,0.271
12.2125,0.287
12.215,0.301
12.2175,0.313
12.22,0.322
12.2225,0.329
12.225,0.332
12.2275,0.332
12.23,0.329
12.2325,0.321
12.235,0.311
12.2375,0.298
12.24,0.282
12.2425,0.266
12.245,0.248
12.2475,0.23
12.25,0.211
12.2525,0.193
12.255,0.175
12.2575,0.158
12.26,0.142
12.2625,0.127
12.265,0.113
12.2675,0.101
12.27,0.09
12.2725,0.0808
12.275,0.0746
12.2775,0.0713
12.28,0.0686
12.2825,0.0647
12.285,0.0583
12.2875,0.0484
12.29,0.0346
12.2925,0.0168
12.295,-0.0047
12.2975,-0.029
12.3,-0.055
12.3025,-0.0812
12.305,-0.105
12.3075,-0.125
12.31,-0.132
12.3125,-0.112
12.315,-0.0569
12.3175,0.038
12.32,0.173
12.3225,0.343
12.325,0.54
12.3275,0.75
12.33,0.951
12.3325,1.11
12.335,1.19
12.3375,1.19
12.34,1.1
12.3425,0.933
12.345,0.724
12.3475,0.498
12.35,0.279
12.3525,0.0872
12.355,-0.0655
12.3575,-0.173
12.36,-0.236
12.3625,-0.259
12.365,-0.248
12.3675,-0.217
12.37,-0.174
12.3725,-0.128
12.375,-0.0843
12.3775,-0.0475
12.38,-0.0192
12.3825,0.0007
12.385,0.015
12.3875,0.0257
12.39,0.0337
12.3925,0.0395
12.395,0.0438
12.3975,0.0472
12.4,0.0501
12.4025,0.053
12.405,0.0562
12.4075,0.06
12.41,0.0647
12.4125,0.0703
12.415,0.077
12.4175,0.0848
12.42,0.0937
12.4225,0.103
12.425,0.114
12.4275,0.125
12.43,0.137
12.4325,0.15
12.435,0.163
12.4375,0.178
12.44,0.193
12.4425,0.209
12.445,0.225
12.4475,0.243
12.45,0.26
12.4525,0.279
12.455,0.297
12.4575,0.315
12.46,0.334
12.4625,0.352
12.465,0.37
12.4675,0.387
12.47,0.404
12.4725,0.42
12.475,0.434
12.4775,0.448
12.48,0.459
12.4825,0.469
12.485,0.478
12.4875,0.484
12.49,0.489
12.4925,0.491
12.495,0.492
12.4975,0.49
12.5,0.486
12.5025,0.481
12.505,0.473
12.5075,0.463
12.51,0.452
12.5125,0.439
12.515,0.425
12.5175,0.409
12.52,0.392
12.5225,0.375
12.525,0.356
12.5275,0.337
12.53,0.318
12.5325,0.298
12.535,0.279
12.5375,0.259
12.54,0.24
12.5425,0.222
12.545,0.204
12.5475,0.186
12.55,0.17
12.5525,0.154
12.555,0.139
12.5575,0.125
12.56,0.112
12.5625,0.1
12.565,0.0889
12.5675,0.0787
12.57,0.0695
12.5725,0.0613
12.575,0.0539
12.5775,0.0473
12.58,0.0414
12.5825,0.0362
12.585,0.0316
12.5875,0.0276
12.59,0.0242
12.5925,0.0211
12.595,0.0186
12.5975,0.0164
12.6,0.0145
12.6025,0.013
12.605,0.0117
12.6075,0.0107
12.61,0.0099
12.6125,0.0093
12.615,0.0088
12.6175,0.0085
12.62,0.0083
12.6225,0.0082
12.625,0.0082
12.6275,0.0082
12.63,0.0084
12.6325,0.0085
12.635,0.0088
12.6375,0.009
12.64,0.0093
12.6425,0.0097
12.645,0.0101
12.6475,0.0105
12.65,0.011
12.6525,0.0115
12.655,0.012
12.6575,0.0126
12.66,0.0131
12.6625,0.0137
12.665,0.0143
12.6675,0.0148
12.67,0.0154
12.6725,0.016
12.675,0.0166
12.6775,0.0171
12.68,0.0177
12.6825,0.0184
12.685,0.019
12.6875,0.0197
12.69,0.0204
12.6925,0.0211
12.695,0.0219
12.6975,0.0228
12.7,0.0238
12.7025,0.0248
12.705,0.026
12.7075,0.0275
12.71,0.0293
12.7125,0.0315
12.715,0.0329
12.7175,0.0375
12.72,0.0481
12.7225,0.0596
12.725,0.072
12.7275,0.0853
12.73,0.0994
12.7325,0.114
12.735,0.13
12.7375,0.147
12.74,0.165
12.7425,0.183
12.745,0.202
12.7475,0.221
12.75,0.24
12.7525,0.259
12.755,0.277
12.7575,0.295
12.76,0.313
12.7625,0.329
12.765,0.345
12.7675,0.36
12.77,0.373
12.7725,0.385
12.775,0.395
12.7775,0.404
12.78,0.411
12.7825,0.416
12.785,0.42
12.7875,0.421
12.79,0.42
12.7925,0.416
12.795,0.41
12.7975,0.402
12.8,0.393
12.8025,0.381
12.805,0.368
12.8075,0.353
12.81,0.338
12.8125,0.321
12.815,0.304
12.8175,0.286
12.82,0.267
12.8225,0.248
12.825,0.229
12.8275,0.211
12.83,0.192
12.8325,0.173
12.835,0.155
12.8375,0.138
12.84,0.121
12.8425,0.104
12.845,0.0889
12.8475,0.0744
12.85,0.0608
12.8525,0.0482
12.855,0.0367
12.8575,0.0263
12.86,0.0169
12.8625,0.0085
12.865,0.0009
12.8675,-0.0059
12.87,-0.0119
12.8725,-0.0171
12.875,-0.0217
12.8775,-0.0257
12.88,-0.0291
12.8825,-0.032
12.885,-0.0344
12.8875,-0.0363
12.89,-0.0378
12.8925,-0.039
12.895,-0.0398
12.8975,-0.0404
12.9,-0.0407
12.9025,-0.0408
12.905,-0.0407
12.9075,-0.0404
12.91,-0.04
12.9125,-0.0395
12.915,-0.0389
12.9175,-0.0383
12.92,-0.0376
12.9225,-0.0368
12.925,-0.036
12.9275,-0.0352
12.93,-0.0343
12.9325,-0.0334
12.935,-0.0325
12.9375,-0.0315
12.94,-0.0306
12.9425,-0.0296
12.945,-0.0286
12.9475,-0.0277
12.95,-0.0267
12.9525,-0.0257
12.955,-0.0248
12.9575,-0.0238
12.96,-0.0228
12.9625,-0.0218
12.965,-0.0209
12.9675,-0.0199
12.97,-0.0189
12.9725,-0.0179
12.975,-0.0168
12.9775,-0.0158
12.98,-0.0147
12.9825,-0.0136
12.985,-0.0125
12.9875,-0.0113
12.99,-0.0099
12.9925,-0.0083
12.995,-0.0064
12.9975,-0.004
13,-0.0013
13.0025,0.0021
13.005,0.0061
13.0075,0.0108
13.01,0.0164
13.0125,0.0228
13.015,0.0304
13.0175,0.039
13.02,0.0489
13.0225,0.0602
13.025,0.073
13.0275,0.0875
13.03,0.104
13.0325,0.122
13.035,0.141
13.0375,0.161
13.04,0.18
13.0425,0.199
13.045,0.217
13.0475,0.234
13.05,0.249
13.0525,0.262
13.055,0.272
13.0575,0.28
13.06,0.286
13.0625,0.288
13.065,0.288
13.0675,0.284
13.07,0.278
13.0725,0.268
13.075,0.255
13.0775,0.239
13.08,0.222
13.0825,0.204
13.085,0.185
13.0875,0.166
13.09,0.148
13.0925,0.129
13.095,0.112
13.0975,0.0962
13.1,0.0815
13.1025,0.0682
13.105,0.0565
13.1075,0.0464
13.11,0.0377
13.1125,0.0308
13.115,0.0254
13.1175,0.0206
13.12,0.0156
13.1225,0.0097
13.125,0.0021
13.1275,-0.0079
13.13,-0.021
13.1325,-0.038
13.135,-0.0595
13.1375,-0.0863
13.14,-0.12
13.1425,-0.15
13.145,-0.166
13.1475,-0.158
13.15,-0.119
13.1525,-0.0452
13.155,0.0652
13.1575,0.211
13.16,0.389
13.1625,0.593
13.165,0.807
13.1675,0.994
13.17,1.12
13.1725,1.17
13.175,1.13
13.1775,1
13.18,0.817
13.1825,0.596
13.185,0.372
13.1875,0.168
13.19,-0.0011
13.1925,-0.126
13.195,-0.204
13.1975,-0.236
13.2,-0.235
13.2025,-0.211
13.205,-0.174
13.2075,-0.13
13.21,-0.0866
13.2125,-0.0477
13.215,-0.0164
13.2175,0.0055
13.22,0.0198
13.2225,0.0291
13.225,0.0351
13.2275,0.0391
13.23,0.0422
13.2325,0.0452
13.235,0.0486
13.2375,0.0526
13.24,0.0571
13.2425,0.062
13.245,0.0673
13.2475,0.0733
13.25,0.08
13.2525,0.0875
13.255,0.0958
13.2575,0.105
13.26,0.115
13.2625,0.126
13.265,0.137
13.2675,0.15
13.27,0.164
13.2725,0.178
13.275,0.194
13.2775,0.21
13.28,0.227
13.2825,0.244
13.285,0.262
13.2875,0.281
13.29,0.299
13.2925,0.318
13.295,0.336
13.2975,0.354
13.3,0.371
13.3025,0.388
13.305,0.404
13.3075,0.42
13.31,0.433
13.3125,0.446
13.315,0.457
13.3175,0.466
13.32,0.474
13.3225,0.479
13.325,0.482
13.3275,0.483
13.33,0.482
13.3325,0.479
13.335,0.474
13.3375,0.467
13.34,0.458
13.3425,0.447
13.345,0.435
13.3475,0.421
13.35,0.406
13.3525,0.389
13.355,0.372
13.3575,0.354
13.36,0.335
13.3625,0.315
13.365,0.296
13.3675,0.276
13.37,0.257
13.3725,0.239
13.375,0.22
13.3775,0.203
13.38,0.186
13.3825,0.17
13.385,0.154
13.3875,0.14
13.39,0.127
13.3925,0.114
13.395,0.103
13.3975,0.0921
13.4,0.0827
13.4025,0.0741
13.405,0.0666
13.4075,0.0599
13.41,0.054
13.4125,0.0489
13.415,0.0445
13.4175,0.0406
13.42,0.0374
13.4225,0.0346
13.425,0.0323
13.4275,0.0304
13.43,0.0289
13.4325,0.0277
13.435,0.0268
13.4375,0.0261
13.44,0.0256
13.4425,0.0253
13.445,0.0251
13.4475,0.0251
13.45,0.0251
13.4525,0.0251
13.455,0.0253
13.4575,0.0254
13.46,0.0255
13.4625,0.0257
13.465,0.0258
13.4675,0.026
13.47,0.0261
13.4725,0.0262
13.475,0.0262
13.4775,0.0263
13.48,0.0263
13.4825,0.0262
13.485,0.0261
13.4875,0.026
13.49,0.0259
13.4925,0.0258
13.495,0.0256
13.4975,0.0255
13.5,0.0254
13.5025,0.0252
13.505,0.0251
13.5075,0.0251
13.51,0.0251
13.5125,0.0252
13.515,0.0253
13.5175,0.0256
13.52,0.0259
13.5225,0.0265
13.525,0.0271
13.5275,0.028
13.53,0.029
13.5325,0.0302
13.535,0.0319
13.5375,0.034
13.54,0.0367
13.5425,0.0401
13.545,0.0442
13.5475,0.0492
13.55,0.0552
13.5525,0.0623
13.555,0.0705
13.5575,0.0799
13.56,0.0907
13.5625,0.103
13.565,0.116
13.5675,0.132
13.57,0.149
13.5725,0.167
13.575,0.187
13.5775,0.206
13.58,0.226
13.5825,0.246
13.585,0.265
13.5875,0.283
13.59,0.299
13.5925,0.313
13.595,0.325
13.5975,0.335
13.6,0.342
13.6025,0.345
13.605,0.345
13.6075,0.341
13.61,0.333
13.6125,0.322
13.615,0.309
13.6175,0.293
13.62,0.276
13.6225,0.258
13.625,0.239
13.6275,0.221
13.63,0.202
13.6325,0.184
13.635,0.167
13.6375,0.15
13.64,0.135
13.6425,0.122
13.645,0.109
13.6475,0.0985
13.65,0.0893
13.6525,0.0822
13.655,0.0785
13.6575,0.0758
13.66,0.0719
13.6625,0.0653
13.665,0.0549
13.6675,0.0403
13.67,0.0212
13.6725,-0.0017
13.675,-0.0275
13.6775,-0.0546
13.68,-0.0811
13.6825,-0.104
13.685,-0.121
13.6875,-0.119
13.69,-0.086
13.6925,-0.0148
13.695,0.0976
13.6975,0.249
13.7,0.433
13.7025,0.638
13.705,0.846
13.7075,1.03
13.71,1.15
13.7125,1.2
13.715,1.15
13.7175,1.02
13.72,0.832
13.7225,0.611
13.725,0.385
13.7275,0.177
13.73,0.0018
13.7325,-0.131
13.735,-0.218
13.7375,-0.263
13.74,-0.27
13.7425,-0.248
13.745,-0.211
13.7475,-0.165
13.75,-0.12
13.7525,-0.0793
13.755,-0.0464
13.7575,-0.0222
13.76,-0.0054
13.7625,0.0071
13.765,0.0164
13.7675,0.0232
13.77,0.0282
13.7725,0.0319
13.775,0.0349
13.7775,0.0375
13.78,0.0403
13.7825,0.0435
13.785,0.0474
13.7875,0.0522
13.79,0.058
13.7925,0.065
13.795,0.073
13.7975,0.0822
13.8,0.0922
13.8025,0.103
13.805,0.114
13.8075,0.127
13.81,0.14
13.8125,0.153
13.815,0.168
13.8175,0.184
13.82,0.2
13.8225,0.217
13.825,0.234
13.8275,0.252
13.83,0.27
13.8325,0.289
13.835,0.307
13.8375,0.326
13.84,0.344
13.8425,0.362
13.845,0.379
13.8475,0.395
13.85,0.411
13.8525,0.425
13.855,0.438
13.8575,0.45
13.86,0.459
13.8625,0.467
13.865,0.473
13.8675,0.477
13.87,0.48
13.8725,0.48
13.875,0.477
13.8775,0.473
13.88,0.467
13.8825,0.459
13.885,0.449
13.8875,0.438
13.89,0.424
13.8925,0.41
13.895,0.394
13.8975,0.377
13.9,0.359
13.9025,0.34
13.905,0.321
13.9075,0.302
13.91,0.282
13.9125,0.263
13.915,0.243
13.9175,0.224
13.92,0.206
13.9225,0.188
13.925,0.17
13.9275,0.154
13.93,0.138
13.9325,0.123
13.935,0.109
13.9375,0.0959
13.94,0.0838
13.9425,0.0726
13.945,0.0623
13.9475,0.0531
13.95,0.0447
13.9525,0.0372
13.955,0.0305
13.9575,0.0245
13.96,0.0191
13.9625,0.0144
13.965,0.0103
13.9675,0.0066
13.97,0.0035
13.9725,0.0007
13.975,-0.0016
13.9775,-0.0036
13.98,-0.0054
13.9825,-0.0068
13.985,-0.008
13.9875,-0.0089
13.99,-0.0097
13.9925,-0.0104
13.995,-0.0109
13.9975,-0.0113
14,-0.0116
14.0025,-0.0118
14.005,-0.0119
14.0075,-0.012
14.01,-0.0121
14.0125,-0.0121
14.015,-0.0121
14.0175,-0.0121
14.02,-0.012
14.0225,-0.0119
14.025,-0.0118
14.0275,-0.0117
14.03,-0.0115
14.0325,-0.0114
14.035,-0.0112
14.0375,-0.0111
14.04,-0.0109
14.0425,-0.0108
14.045,-0.0107
14.0475,-0.0106
14.05,-0.0104
14.0525,-0.0103
14.055,-0.0102
14.0575,-0.01
14.06,-0.0098
14.0625,-0.0096
14.065,-0.0093
14.0675,-0.0089
14.07,-0.0085
14.0725,-0.008
14.075,-0.0074
14.0775,-0.0067
14.08,-0.0059
14.0825,-0.005
14.085,-0.0038
14.0875,-0.0022
14.09,-0.0002
14.0925,0.0023
14.095,0.0055
14.0975,0.0095
14.1,0.0143
14.1025,0.0201
14.105,0.0269
14.1075,0.0349
14.11,0.0441
14.1125,0.0545
14.115,0.0664
14.1175,0.0797
14.12,0.0946
14.1225,0.111
14.125,0.128
14.1275,0.146
14.13,0.164
14.1325,0.182
14.135,0.2
14.1375,0.217
14.14,0.232
14.1425,0.246
14.145,0.258
14.1475,0.268
14.15,0.275
14.1525,0.279
14.155,0.279
14.1575,0.276
14.16,0.27
14.1625,0.26
14.165,0.248
14.1675,0.234
14.17,0.217
14.1725,0.2
14.175,0.182
14.1775,0.163
14.18,0.143
14.1825,0.125
14.185,0.106
14.1875,0.0884
14.19,0.0718
14.1925,0.0565
14.195,0.0427
14.1975,0.0306
14.2,0.0197
14.2025,0.0104
14.205,0.0026
14.2075,-0.0039
14.21,-0.0094
14.2125,-0.0144
14.215,-0.0195
14.2175,-0.0256
14.22,-0.0337
14.2225,-0.045
14.225,-0.0608
14.2275,-0.0827
14.23,-0.11
14.2325,-0.141
14.235,-0.168
14.2375,-0.187
14.24,-0.191
14.2425,-0.174
14.245,-0.127
14.2475,-0.0426
14.25,0.0809
14.2525,0.243
14.255,0.435
14.2575,0.644
14.26,0.848
14.2625,1.02
14.265,1.13
14.2675,1.15
14.27,1.09
14.2725,0.945
14.275,0.747
14.2775,0.523
14.28,0.298
14.2825,0.0944
14.285,-0.0742
14.2875,-0.2
14.29,-0.281
14.2925,-0.319
14.295,-0.323
14.2975,-0.304
14.3,-0.269
14.3025,-0.225
14.305,-0.18
14.3075,-0.138
14.31,-0.104
14.3125,-0.0806
14.315,-0.0647
14.3175,-0.0542
14.32,-0.0473
14.3225,-0.0427
14.325,-0.0391
14.3275,-0.0358
14.33,-0.0324
14.3325,-0.0288
14.335,-0.0249
14.3375,-0.0205
14.34,-0.0155
14.3425,-0.0099
14.345,-0.0037
14.3475,0.0032
14.35,0.0109
14.3525,0.0193
14.355,0.0285
14.3575,0.0386
14.36,0.0495
14.3625,0.0612
14.365,0.0738
14.3675,0.0872
14.37,0.101
14.3725,0.117
14.375,0.133
14.3775,0.15
14.38,0.167
14.3825,0.185
14.385,0.203
14.3875,0.221
14.39,0.239
14.3925,0.257
14.395,0.275
14.3975,0.292
14.4,0.308
14.4025,0.324
14.405,0.339
14.4075,0.352
14.41,0.365
14.4125,0.376
14.415,0.386
14.4175,0.394
14.42,0.4
14.4225,0.405
14.425,0.408
14.4275,0.408
14.43,0.407
14.4325,0.403
14.435,0.397
14.4375,0.389
14.44,0.379
14.4425,0.368
14.445,0.355
14.4475,0.341
14.45,0.325
14.4525,0.309
14.455,0.292
14.4575,0.274
14.46,0.255
14.4625,0.236
14.465,0.217
14.4675,0.197
14.47,0.178
14.4725,0.159
14.475,0.14
14.4775,0.121
14.48,0.103
14.4825,0.0853
14.485,0.0687
14.4875,0.0529
14.49,0.0382
14.4925,0.0246
14.495,0.0119
14.4975,0.0001
14.5,-0.0107
14.5025,-0.0207
14.505,-0.0298
14.5075,-0.0381
14.51,-0.0456
14.5125,-0.0525
14.515,-0.0586
14.5175,-0.064
14.52,-0.0688
14.5225,-0.0731
14.525,-0.0768
14.5275,-0.08
14.53,-0.0828
14.5325,-0.0851
14.535,-0.0871
14.5375,-0.0887
14.54,-0.0901
14.5425,-0.0913
14.545,-0.0922
14.5475,-0.093
14.55,-0.0938
14.5525,-0.0944
14.555,-0.0949
14.5575,-0.0953
14.56,-0.0957
14.5625,-0.096
14.565,-0.0963
14.5675,-0.0964
14.57,-0.0966
14.5725,-0.0967
14.575,-0.0968
14.5775,-0.0969
14.58,-0.097
14.5825,-0.0971
14.585,-0.0971
14.5875,-0.0971
14.59,-0.0972
14.5925,-0.0972
14.595,-0.0972
14.5975,-0.0972
14.6,-0.0972
14.6025,-0.0971
14.605,-0.0971
14.6075,-0.097
14.61,-0.0969
14.6125,-0.0967
14.615,-0.0965
14.6175,-0.0963
14.62,-0.096
14.6225,-0.0956
14.625,-0.0953
14.6275,-0.0949
14.63,-0.0944
14.6325,-0.0938
14.635,-0.0931
14.6375,-0.0922
14.64,-0.091
14.6425,-0.0896
14.645,-0.0878
14.6475,-0.0856
14.65,-0.0828
14.6525,-0.0795
14.655,-0.0755
14.6575,-0.0709
14.66,-0.0653
14.6625,-0.0587
14.665,-0.0509
14.6675,-0.0417
14.67,-0.031
14.6725,-0.0189
14.675,-0.0053
14.6775,0.0096
14.68,0.0258
14.6825,0.043
14.685,0.0611
14.6875,0.0798
14.69,0.0988
14.6925,0.118
14.695,0.136
14.6975,0.154
14.7,0.17
14.7025,0.184
14.705,0.196
14.7075,0.205
14.71,0.211
14.7125,0.214
14.715,0.213
14.7175,0.21
14.72,0.203
14.7225,0.193
14.725,0.181
14.7275,0.166
14.73,0.15
14.7325,0.132
14.735,0.113
14.7375,0.0936
14.74,0.0742
14.7425,0.055
14.745,0.0365
14.7475,0.019
14.75,0.0026
14.7525,-0.0127
14.755,-0.0267
14.7575,-0.0391
14.76,-0.0498
14.7625,-0.0588
14.765,-0.0661
14.7675,-0.0722
14.77,-0.0773
14.7725,-0.0822
14.775,-0.0876
14.7775,-0.0943
14.78,-0.103
14.7825,-0.116
14.785,-0.134
14.7875,-0.168
14.79,-0.212
14.7925,-0.254
14.795,-0.285
14.7975,-0.298
14.8,-0.288
14.8025,-0.249
14.805,-0.18
14.8075,-0.0805
14.81,0.0494
14.8125,0.207
14.815,0.387
14.8175,0.584
14.82,0.788
14.8225,0.962
14.825,1.07
14.8275,1.1
14.83,1.04
14.8325,0.906
14.835,0.711
14.8375,0.487
14.84,0.263
14.8425,0.062
14.845,-0.102
14.8475,-0.22
14.85,-0.293
14.8525,-0.322
14.855,-0.317
14.8575,-0.29
14.86,-0.25
14.8625,-0.205
14.865,-0.162
14.8675,-0.124
14.87,-0.0945
14.8725,-0.0736
14.875,-0.0597
14.8775,-0.0503
14.88,-0.0442
14.8825,-0.0401
14.885,-0.037
14.8875,-0.0342
14.89,-0.031
14.8925,-0.0273
14.895,-0.0228
14.8975,-0.0176
14.9,-0.012
14.9025,-0.006
14.905,0.0006
14.9075,0.008
14.91,0.016
14.9125,0.0249
14.915,0.0346
14.9175,0.0452
14.92,0.0566
14.9225,0.0689
14.925,0.0821
14.9275,0.096
14.93,0.111
14.9325,0.126
14.935,0.143
14.9375,0.16
14.94,0.177
14.9425,0.195
14.945,0.213
14.9475,0.231
14.95,0.249
14.9525,0.266
14.955,0.283
14.9575,0.299
14.96,0.314
14.9625,0.328
14.965,0.341
14.9675,0.353
14.97,0.363
14.9725,0.371
14.975,0.378
14.9775,0.383
14.98,0.386
14.9825,0.387
14.985,0.386
14.9875,0.382
14.99,0.377
14.9925,0.369
14.995,0.359
14.9975,0.348
15,0.335
15.0025,0.32
15.005,0.305
15.0075,0.288
15.01,0.271
15.0125,0.253
15.015,0.235
15.0175,0.216
15.02,0.197
15.0225,0.178
15.025,0.159
15.0275,0.14
15.03,0.122
15.0325,0.104
15.035,0.087
15.0375,0.0705
15.04,0.0547
15.0425,0.0399
15.045,0.0261
15.0475,0.0134
15.05,0.0017
15.0525,-0.0089
15.055,-0.0185
15.0575,-0.0272
15.06,-0.035
15.0625,-0.042
15.065,-0.0482
15.0675,-0.0537
15.07,-0.0585
15.0725,-0.0627
15.075,-0.0663
15.0775,-0.0693
15.08,-0.0719
15.0825,-0.074
15.085,-0.0757
15.0875,-0.077
15.09,-0.078
15.0925,-0.0787
15.095,-0.0791
15.0975,-0.0794
15.1,-0.0794
15.1025,-0.0794
15.105,-0.0792
15.1075,-0.0789
15.11,-0.0786
15.1125,-0.0783
15.115,-0.0778
15.1175,-0.0774
15.12,-0.0769
15.1225,-0.0763
15.125,-0.0758
15.1275,-0.0752
15.13,-0.0746
15.1325,-0.074
15.135,-0.0734
15.1375,-0.0728
15.14,-0.0722
15.1425,-0.0716
15.145,-0.071
15.1475,-0.0704
15.15,-0.0698
15.1525,-0.0692
15.155,-0.0686
15.1575,-0.0681
15.16,-0.0675
15.1625,-0.0669
15.165,-0.0663
15.1675,-0.0657
15.17,-0.0651
15.1725,-0.0644
15.175,-0.0637
15.1775,-0.063
15.18,-0.0622
15.1825,-0.0613
15.185,-0.0603
15.1875,-0.059
15.19,-0.0576
15.1925,-0.0559
15.195,-0.0538
15.1975,-0.0512
15.2,-0.0481
15.2025,-0.0443
15.205,-0.0398
15.2075,-0.0344
15.21,-0.0279
15.2125,-0.0204
15.215,-0.0114
15.2175,-0.0011
15.22,0.0107
15.2225,0.024
15.225,0.0387
15.2275,0.0547
15.23,0.0719
15.2325,0.0899
15.235,0.109
15.2375,0.128
15.24,0.147
15.2425,0.165
15.245,0.182
15.2475,0.198
15.25,0.212
15.2525,0.223
15.255,0.232
15.2575,0.237
15.26,0.239
15.2625,0.238
15.265,0.233
15.2675,0.226
15.27,0.215
15.2725,0.202
15.275,0.187
15.2775,0.17
15.28,0.152
15.2825,0.133
15.285,0.114
15.2875,0.0956
15.29,0.0777
15.2925,0.0608
15.295,0.0451
15.2975,0.0308
15.3,0.018
15.3025,0.0067
15.305,-0.003
15.3075,-0.0112
15.31,-0.0181
15.3125,-0.0239
15.315,-0.0286
15.3175,-0.0327
15.32,-0.0376
15.3225,-0.0443
15.325,-0.054
15.3275,-0.0676
15.33,-0.0856
15.3325,-0.109
15.335,-0.138
15.3375,-0.169
15.34,-0.194
15.3425,-0.205
15.345,-0.196
15.3475,-0.161
15.35,-0.0919
15.3525,0.0148
15.355,0.164
15.3575,0.351
15.36,0.558
15.3625,0.762
15.365,0.941
15.3675,1.07
15.37,1.12
15.3725,1.07
15.375,0.938
15.3775,0.753
15.38,0.536
15.3825,0.312
15.385,0.107
15.3875,-0.0579
15.39,-0.178
15.3925,-0.253
15.395,-0.286
15.3975,-0.283
15.4,-0.254
15.4025,-0.212
15.405,-0.165
15.4075,-0.12
15.41,-0.0822
15.4125,-0.0536
15.415,-0.0345
15.4175,-0.0229
15.42,-0.0154
15.4225,-0.01
15.425,-0.006
15.4275,-0.0027
15.43,0.0005
15.4325,0.0039
15.435,0.008
15.4375,0.0127
15.44,0.0179
15.4425,0.0237
15.445,0.0301
15.4475,0.0374
15.45,0.0454
15.4525,0.0543
15.455,0.064
15.4575,0.0747
15.46,0.0863
15.4625,0.0988
15.465,0.112
15.4675,0.127
15.47,0.142
15.4725,0.158
15.475,0.175
15.4775,0.193
15.48,0.211
15.4825,0.23
15.485,0.249
15.4875,0.268
15.49,0.286
15.4925,0.305
15.495,0.322
15.4975,0.339
15.5,0.355
15.5025,0.371
15.505,0.384
15.5075,0.397
15.51,0.408
15.5125,0.418
15.515,0.425
15.5175,0.431
15.52,0.435
15.5225,0.437
15.525,0.437
15.5275,0.434
15.53,0.429
15.5325,0.421
15.535,0.412
15.5375,0.401
15.54,0.388
15.5425,0.374
15.545,0.359
15.5475,0.342
15.55,0.325
15.5525,0.307
15.555,0.289
15.5575,0.27
15.56,0.251
15.5625,0.232
15.565,0.214
15.5675,0.195
15.57,0.177
15.5725,0.159
15.575,0.142
15.5775,0.126
15.58,0.111
15.5825,0.0965
15.585,0.0832
15.5875,0.071
15.59,0.0599
15.5925,0.0498
15.595,0.0407
15.5975,0.0326
15.6,0.0253
15.6025,0.0188
15.605,0.0132
15.6075,0.0082
15.61,0.004
15.6125,0.0004
15.615,-0.0027
15.6175,-0.0052
15.62,-0.0072
15.6225,-0.0088
15.625,-0.0099
15.6275,-0.0108
15.63,-0.0113
15.6325,-0.0115
15.635,-0.0115
15.6375,-0.0114
15.64,-0.011
15.6425,-0.0106
15.645,-0.0101
15.6475,-0.0096
15.65,-0.009
15.6525,-0.0083
15.655,-0.0077
15.6575,-0.0069
15.66,-0.0062
15.6625,-0.0055
15.665,-0.0047
15.6675,-0.004
15.67,-0.0033
15.6725,-0.0026
15.675,-0.0019
15.6775,-0.0013
15.68,-0.0006
15.6825,0
15.685,0.0006
15.6875,0.0011
15.69,0.0017
15.6925,0.0023
15.695,0.0028
15.6975,0.0034
15.7,0.0039
15.7025,0.0045
15.705,0.0051
15.7075,0.0057
15.71,0.0064
15.7125,0.0071
15.715,0.0079
15.7175,0.0087
15.72,0.0097
15.7225,0.0108
15.725,0.0121
15.7275,0.0137
15.73,0.0156
15.7325,0.018
15.735,0.0209
15.7375,0.0245
15.74,0.0289
15.7425,0.0341
15.745,0.0404
15.7475,0.0479
15.75,0.0565
15.7525,0.0666
15.755,0.0782
15.7575,0.0913
15.76,0.106
15.7625,0.122
15.765,0.139
15.7675,0.157
15.77,0.176
15.7725,0.196
15.775,0.215
15.7775,0.234
15.78,0.252
15.7825,0.268
15.785,0.282
15.7875,0.294
15.79,0.303
15.7925,0.308
15.795,0.311
15.7975,0.31
15.8,0.305
15.8025,0.298
15.805,0.287
15.8075,0.274
15.81,0.258
15.8125,0.241
15.815,0.222
15.8175,0.203
15.82,0.185
15.8225,0.166
15.825,0.148
15.8275,0.131
15.83,0.116
15.8325,0.102
15.835,0.0895
15.8375,0.0787
15.84,0.0694
15.8425,0.0615
15.845,0.0549
15.8475,0.0493
15.85,0.0445
15.8525,0.04
15.855,0.0348
15.8575,0.0271
15.86,0.0158
15.8625,-0.0001
15.865,-0.021
15.8675,-0.0474
15.87,-0.0776
15.8725,-0.105
15.875,-0.123
15.8775,-0.124
15.88,-0.101
15.8825,-0.045
15.885,0.0497
15.8875,0.186
15.89,0.361
15.8925,0.562
15.895,0.771
15.8975,0.964
15.9,1.11
15.9025,1.17
15.905,1.14
15.9075,1.03
15.91,0.863
15.9125,0.65
15.915,0.42
15.9175,0.204
15.92,0.0246
15.9225,-0.113
15.925,-0.207
15.9275,-0.258
15.93,-0.271
15.9325,-0.253
15.935,-0.215
15.9375,-0.169
15.94,-0.121
15.9425,-0.0783
15.945,-0.0433
15.9475,-0.0177
15.95,-0.0007
15.9525,0.0105
15.955,0.0183
15.9575,0.024
15.96,0.0283
15.9625,0.0321
15.965,0.036
15.9675,0.0402
15.97,0.045
15.9725,0.0503
15.975,0.0561
15.9775,0.0624
15.98,0.0694
15.9825,0.0771
15.985,0.0855
15.9875,0.0947
15.99,0.105
15.9925,0.116
15.995,0.127
15.9975,0.14
16,0.153
16.0025,0.167
16.005,0.182
16.0075,0.198
16.01,0.215
16.0125,0.232
16.015,0.25
16.0175,0.268
16.02,0.287
16.0225,0.305
16.025,0.323
16.0275,0.341
16.03,0.359
16.0325,0.376
16.035,0.393
16.0375,0.409
16.04,0.423
16.0425,0.437
16.045,0.449
16.0475,0.46
16.05,0.469
16.0525,0.476
16.055,0.481
16.0575,0.484
16.06,0.485
16.0625,0.484
16.065,0.48
16.0675,0.475
16.07,0.468
16.0725,0.459
16.075,0.449
16.0775,0.436
16.08,0.423
16.0825,0.408
16.085,0.392
16.0875,0.374
16.09,0.356
16.0925,0.338
16.095,0.318
16.0975,0.299
16.1,0.279
16.1025,0.26
16.105,0.24
16.1075,0.222
16.11,0.204
16.1125,0.186
16.115,0.17
16.1175,0.154
16.12,0.139
16.1225,0.125
16.125,0.112
16.1275,0.1
16.13,0.0888
16.1325,0.0785
16.135,0.0692
16.1375,0.0607
16.14,0.0532
16.1425,0.0465
16.145,0.0406
16.1475,0.0355
16.15,0.0311
16.1525,0.0272
16.155,0.0239
16.1575,0.021
16.16,0.0186
16.1625,0.0165
16.165,0.0148
16.1675,0.0134
16.17,0.0123
16.1725,0.0114
16.175,0.0108
16.1775,0.0103
16.18,0.0099
16.1825,0.0097
16.185,0.0096
16.1875,0.0095
16.19,0.0096
16.1925,0.0097
16.195,0.0098
16.1975,0.0099
16.2,0.0101
16.2025,0.0104
16.205,0.0106
16.2075,0.0109
16.21,0.0112
16.2125,0.0116
16.215,0.012
16.2175,0.0123
16.22,0.0127
16.2225,0.0132
16.225,0.0136
16.2275,0.014
16.23,0.0144
16.2325,0.0149
16.235,0.0154
16.2375,0.0159
16.24,0.0164
16.2425,0.0169
16.245,0.0176
16.2475,0.0182
16.25,0.0189
16.2525,0.0197
16.255,0.0206
16.2575,0.0216
16.26,0.0227
16.2625,0.0239
16.265,0.0252
16.2675,0.0267
16.27,0.0284
16.2725,0.0304
16.275,0.0329
16.2775,0.0359
16.28,0.0395
16.2825,0.0439
16.285,0.0491
16.2875,0.0552
16.29,0.0624
16.2925,0.0706
16.295,0.08
16.2975,0.0908
16.3,0.103
16.3025,0.117
16.305,0.132
16.3075,0.149
16.31,0.167
16.3125,0.185
16.315,0.204
16.3175,0.223
16.32,0.242
16.3225,0.259
16.325,0.276
16.3275,0.291
16.33,0.304
16.3325,0.315
16.335,0.323
16.3375,0.328
16.34,0.33
16.3425,0.329
16.345,0.324
16.3475,0.315
16.35,0.303
16.3525,0.289
16.355,0.273
16.3575,0.256
16.36,0.238
16.3625,0.22
16.365,0.201
16.3675,0.182
16.37,0.164
16.3725,0.147
16.375,0.13
16.3775,0.115
16.38,0.101
16.3825,0.0886
16.385,0.0779
16.3875,0.0686
16.39,0.0606
16.3925,0.0539
16.395,0.0482
16.3975,0.0431
16.4,0.0378
16.4025,0.0313
16.405,0.0226
16.4075,0.0103
16.41,-0.0071
16.4125,-0.0302
16.415,-0.0579
16.4175,-0.0877
16.42,-0.115
16.4225,-0.134
16.425,-0.136
16.4275,-0.114
16.43,-0.0593
16.4325,0.0348
16.435,0.17
16.4375,0.341
16.44,0.54
16.4425,0.752
16.445,0.952
16.4475,1.1
16.45,1.18
16.4525,1.18
16.455,1.09
16.4575,0.927
16.46,0.719
16.4625,0.492
16.465,0.271
16.4675,0.0761
16.47,-0.081
16.4725,-0.194
16.475,-0.263
16.4775,-0.289
16.48,-0.283
16.4825,-0.256
16.485,-0.217
16.4875,-0.173
16.49,-0.13
16.4925,-0.0927
16.495,-0.0626
16.4975,-0.0408
16.5,-0.0262
16.5025,-0.0154
16.505,-0.0071
16.5075,-0.0007
16.51,0.0043
16.5125,0.0083
16.515,0.0117
16.5175,0.0149
16.52,0.0182
16.5225,0.0219
16.525,0.0261
16.5275,0.0311
16.53,0.037
16.5325,0.0439
16.535,0.0518
16.5375,0.0608
16.54,0.0708
16.5425,0.0817
16.545,0.0935
16.5475,0.106
16.55,0.119
16.5525,0.133
16.555,0.148
16.5575,0.163
16.56,0.18
16.5625,0.197
16.565,0.214
16.5675,0.232
16.57,0.25
16.5725,0.269
16.575,0.287
16.5775,0.306
16.58,0.324
16.5825,0.342
16.585,0.359
16.5875,0.375
16.59,0.391
16.5925,0.405
16.595,0.418
16.5975,0.43
16.6,0.44
16.6025,0.448
16.605,0.454
16.6075,0.459
16.61,0.461
16.6125,0.462
16.615,0.46
16.6175,0.457
16.62,0.451
16.6225,0.444
16.625,0.434
16.6275,0.423
16.63,0.411
16.6325,0.397
16.635,0.381
16.6375,0.364
16.64,0.347
16.6425,0.328
16.645,0.31
16.6475,0.29
16.65,0.271
16.6525,0.251
16.655,0.232
16.6575,0.213
16.66,0.194
16.6625,0.176
16.665,0.158
16.6675,0.141
16.67,0.125
16.6725,0.11
16.675,0.0956
16.6775,0.0821
16.68,0.0696
16.6825,0.0581
16.685,0.0474
16.6875,0.0377
16.69,0.0288
16.6925,0.0207
16.695,0.0134
16.6975,0.0068
16.7,0.001
16.7025,-0.0042
16.705,-0.0089
16.7075,-0.013
16.71,-0.0166
16.7125,-0.0198
16.715,-0.0226
16.7175,-0.0251
16.72,-0.0272
16.7225,-0.0291
16.725,-0.0307
16.7275,-0.0322
16.73,-0.0334
16.7325,-0.0345
16.735,-0.0355
16.7375,-0.0363
16.74,-0.037
16.7425,-0.0377
16.745,-0.0383
16.7475,-0.0388
16.75,-0.0393
16.7525,-0.0397
16.755,-0.0401
16.7575,-0.0404
16.76,-0.0407
16.7625,-0.041
16.765,-0.0412
16.7675,-0.0414
16.77,-0.0416
16.7725,-0.0418
16.775,-0.0419
16.7775,-0.0421
16.78,-0.0422
16.7825,-0.0423
16.785,-0.0424
16.7875,-0.0425
16.79,-0.0426
16.7925,-0.0426
16.795,-0.0426
16.7975,-0.0426
16.8,-0.0426
16.8025,-0.0425
16.805,-0.0423
16.8075,-0.0421
16.81,-0.0418
16.8125,-0.0415
16.815,-0.0411
16.8175,-0.0405
16.82,-0.0399
16.8225,-0.0391
16.825,-0.0383
16.8275,-0.0372
16.83,-0.0358
16.8325,-0.0339
16.835,-0.0314
16.8375,-0.0283
16.84,-0.0244
16.8425,-0.0196
16.845,-0.0138
16.8475,-0.0071
16.85,0.0008
16.8525,0.0098
16.855,0.0201
16.8575,0.0317
16.86,0.0445
16.8625,0.0588
16.865,0.0745
16.8675,0.0919
16.87,0.111
16.8725,0.13
16.875,0.149
16.8775,0.168
16.88,0.186
16.8825,0.203
16.885,0.218
16.8875,0.232
16.89,0.243
16.8925,0.251
16.895,0.257
16.8975,0.259
16.9,0.259
16.9025,0.256
16.905,0.25
16.9075,0.241
16.91,0.229
16.9125,0.214
16.915,0.197
16.9175,0.179
16.92,0.16
16.9225,0.141
16.925,0.121
16.9275,0.102
16.93,0.0841
16.9325,0.0667
16.935,0.0505
16.9375,0.0357
16.94,0.0222
16.9425,0.0102
16.945,-0.0003
16.9475,-0.0095
16.95,-0.0172
16.9525,-0.0234
16.955,-0.0289
16.9575,-0.0342
16.96,-0.0403
16.9625,-0.0477
16.965,-0.0574
16.9675,-0.07
16.97,-0.0863
16.9725,-0.107
16.975,-0.133
16.9775,-0.164
16.98,-0.194
16.9825,-0.215
16.985,-0.221
16.9875,-0.205
16.99,-0.16
16.9925,-0.082
16.995,0.0348
16.9975,0.194
17,0.385
17.0025,0.591
17.005,0.792
17.0075,0.967
17.01,1.09
17.0125,1.14
17.015,1.09
17.0175,0.96
17.02,0.777
17.0225,0.563
17.025,0.339
17.0275,0.127
17.03,-0.05
17.0325,-0.183
17.035,-0.272
17.0375,-0.32
17.04,-0.332
17.0425,-0.314
17.045,-0.276
17.0475,-0.231
17.05,-0.185
17.0525,-0.144
17.055,-0.111
17.0575,-0.0861
17.06,-0.0698
17.0625,-0.0603
17.065,-0.0544
17.0675,-0.05
17.07,-0.0467
17.0725,-0.044
17.075,-0.0413
17.0775,-0.0383
17.08,-0.0348
17.0825,-0.0307
17.085,-0.0259
17.0875,-0.0206
17.09,-0.0146
17.0925,-0.0079
17.095,-0.0004
17.0975,0.0079
17.1,0.0171
17.1025,0.0272
17.105,0.0382
17.1075,0.0501
17.11,0.0628
17.1125,0.0765
17.115,0.091
17.1175,0.106
17.12,0.122
17.1225,0.139
17.125,0.157
17.1275,0.175
17.13,0.193
17.1325,0.212
17.135,0.23
17.1375,0.249
17.14,0.267
17.1425,0.284
17.145,0.301
17.1475,0.316
17.15,0.331
17.1525,0.345
17.155,0.357
17.1575,0.367
17.16,0.377
17.1625,0.384
17.165,0.39
17.1675,0.393
17.17,0.395
17.1725,0.395
17.175,0.392
17.1775,0.388
17.18,0.381
17.1825,0.372
17.185,0.361
17.1875,0.348
17.19,0.335
17.1925,0.319
17.195,0.303
17.1975,0.286
17.2,0.268
17.2025,0.25
17.205,0.231
17.2075,0.211
17.21,0.192
17.2125,0.173
17.215,0.153
17.2175,0.134
17.22,0.116
17.2225,0.0976
17.225,0.08
17.2275,0.0632
17.23,0.0473
17.2325,0.0322
17.235,0.0182
17.2375,0.0052
17.24,-0.0067
17.2425,-0.0176
17.245,-0.0276
17.2475,-0.0366
17.25,-0.0448
17.2525,-0.0523
17.255,-0.0589
17.2575,-0.0649
17.26,-0.0701
17.2625,-0.0748
17.265,-0.0789
17.2675,-0.0824
17.27,-0.0855
17.2725,-0.0881
17.275,-0.0903
17.2775,-0.0921
17.28,-0.0936
17.2825,-0.0949
17.285,-0.0958
17.2875,-0.0966
17.29,-0.0972
17.2925,-0.0977
17.295,-0.0981
17.2975,-0.0984
17.3,-0.0986
17.3025,-0.0988
17.305,-0.0989
17.3075,-0.099
17.31,-0.099
17.3125,-0.099
17.315,-0.099
17.3175,-0.0989
17.32,-0.0988
17.3225,-0.0987
17.325,-0.0985
17.3275,-0.0983
17.33,-0.0982
17.3325,-0.098
17.335,-0.0977
17.3375,-0.0975
17.34,-0.0973
17.3425,-0.097
17.345,-0.0967
17.3475,-0.0964
17.35,-0.0961
17.3525,-0.0958
17.355,-0.0954
17.3575,-0.095
17.36,-0.0946
17.3625,-0.0941
17.365,-0.0935
17.3675,-0.0929
17.37,-0.0923
17.3725,-0.0916
17.375,-0.0908
17.3775,-0.0898
17.38,-0.0887
17.3825,-0.0873
17.385,-0.0857
17.3875,-0.0837
17.39,-0.0813
17.3925,-0.0783
17.395,-0.0748
17.3975,-0.0705
17.4,-0.0653
17.4025,-0.0592
17.405,-0.0519
17.4075,-0.0434
17.41,-0.0335
17.4125,-0.0222
17.415,-0.0094
17.4175,0.0047
17.42,0.0201
17.4225,0.0366
17.425,0.0539
17.4275,0.072
17.43,0.0904
17.4325,0.109
17.435,0.127
17.4375,0.144
17.44,0.161
17.4425,0.175
17.445,0.187
17.4475,0.197
17.45,0.203
17.4525,0.206
17.455,0.206
17.4575,0.203
17.46,0.197
17.4625,0.187
17.465,0.175
17.4675,0.161
17.47,0.144
17.4725,0.126
17.475,0.107
17.4775,0.0873
17.48,0.0677
17.4825,0.0485
17.485,0.03
17.4875,0.0124
17.49,-0.0039
17.4925,-0.0188
17.495,-0.0322
17.4975,-0.0441
17.5,-0.0545
17.5025,-0.0635
17.505,-0.0711
17.5075,-0.0776
17.51,-0.0829
17.5125,-0.0876
17.515,-0.0931
17.5175,-0.101
17.52,-0.111
17.5225,-0.126
17.525,-0.144
17.5275,-0.167
17.53,-0.195
17.5325,-0.227
17.535,-0.256
17.5375,-0.273
17.54,-0.269
17.5425,-0.239
17.545,-0.178
17.5475,-0.0805
17.55,0.0536
17.5525,0.225
17.555,0.437
17.5575,0.658
17.56,0.852
17.5625,0.993
17.565,1.06
17.5675,1.05
17.57,0.959
17.5725,0.795
17.575,0.584
17.5775,0.359
17.58,0.144
17.5825,-0.0433
17.585,-0.191
17.5875,-0.292
17.59,-0.347
17.5925,-0.36
17.595,-0.342
17.5975,-0.306
17.6,-0.261
17.6025,-0.213
17.605,-0.17
17.6075,-0.135
17.61,-0.109
17.6125,-0.0929
17.615,-0.0835
17.6175,-0.0767
17.62,-0.0716
17.6225,-0.0677
17.625,-0.0644
17.6275,-0.061
17.63,-0.0574
17.6325,-0.0532
17.635,-0.0483
17.6375,-0.0429
17.64,-0.0369
17.6425,-0.0302
17.645,-0.0228
17.6475,-0.0146
17.65,-0.0055
17.6525,0.0044
17.655,0.0152
17.6575,0.027
17.66,0.0396
17.6625,0.0532
17.665,0.0676
17.6675,0.0829
17.67,0.0989
17.6725,0.116
17.675,0.133
17.6775,0.152
17.68,0.17
17.6825,0.189
17.685,0.209
17.6875,0.228
17.69,0.246
17.6925,0.264
17.695,0.282
17.6975,0.298
17.7,0.314
17.7025,0.328
17.705,0.341
17.7075,0.352
17.71,0.362
17.7125,0.37
17.715,0.377
17.7175,0.381
17.72,0.383
17.7225,0.384
17.725,0.382
17.7275,0.377
17.73,0.371
17.7325,0.362
17.735,0.351
17.7375,0.339
17.74,0.325
17.7425,0.31
17.745,0.294
17.7475,0.277
17.75,0.26
17.7525,0.242
17.755,0.223
17.7575,0.204
17.76,0.185
17.7625,0.166
17.765,0.148
17.7675,0.129
17.77,0.112
17.7725,0.0943
17.775,0.0776
17.7775,0.0617
17.78,0.0466
17.7825,0.0324
17.785,0.0192
17.7875,0.0071
17.79,-0.0039
17.7925,-0.0139
17.795,-0.023
17.7975,-0.0311
17.8,-0.0383
17.8025,-0.0448
17.805,-0.0505
17.8075,-0.0555
17.81,-0.0599
17.8125,-0.0636
17.815,-0.0669
17.8175,-0.0696
17.82,-0.0718
17.8225,-0.0736
17.825,-0.0751
17.8275,-0.0762
17.83,-0.077
17.8325,-0.0775
17.835,-0.0778
17.8375,-0.0779
17.84,-0.0778
17.8425,-0.0776
17.845,-0.0773
17.8475,-0.0768
17.85,-0.0763
17.8525,-0.0757
17.855,-0.075
17.8575,-0.0743
17.86,-0.0735
17.8625,-0.0726
17.865,-0.0718
17.8675,-0.0708
17.87,-0.0699
17.8725,-0.0689
17.875,-0.0679
17.8775,-0.0669
17.88,-0.0658
17.8825,-0.0648
17.885,-0.0637
17.8875,-0.0627
17.89,-0.0616
17.8925,-0.0606
17.895,-0.0595
17.8975,-0.0584
17.9,-0.0574
17.9025,-0.0563
17.905,-0.0552
17.9075,-0.0541
17.91,-0.0531
17.9125,-0.0519
17.915,-0.0508
17.9175,-0.0497
17.92,-0.0486
17.9225,-0.0476
17.925,-0.0464
17.9275,-0.045
17.93,-0.0432
17.9325,-0.041
17.935,-0.0383
17.9375,-0.0349
17.94,-0.0307
17.9425,-0.0257
17.945,-0.0198
17.9475,-0.0129
17.95,-0.005
17.9525,0.0042
17.955,0.0145
17.9575,0.026
17.96,0.039
17.9625,0.0532
17.965,0.069
17.9675,0.0861
17.97,0.104
17.9725,0.123
17.975,0.142
17.9775,0.161
17.98,0.179
17.9825,0.196
17.985,0.212
17.9875,0.225
17.99,0.236
17.9925,0.245
17.995,0.25
17.9975,0.252
18,0.251
18.0025,0.246
18.005,0.238
18.0075,0.227
18.01,0.214
18.0125,0.2
18.015,0.183
18.0175,0.166
18.02,0.148
18.0225,0.129
18.025,0.111
18.0275,0.0937
18.03,0.0772
18.0325,0.0618
18.035,0.0477
18.0375,0.0351
18.04,0.0242
18.0425,0.0152
18.045,0.0079
18.0475,0.0021
18.05,-0.0026
18.0525,-0.0068
18.055,-0.011
18.0575,-0.0161
18.06,-0.0231
18.0625,-0.0329
18.065,-0.047
18.0675,-0.0665
18.07,-0.0915
18.0725,-0.12
18.075,-0.149
18.0775,-0.173
18.08,-0.184
18.0825,-0.174
18.085,-0.136
18.0875,-0.0606
18.09,0.0571
18.0925,0.216
18.095,0.407
18.0975,0.615
18.1,0.82
18.1025,0.993
18.105,1.1
18.1075,1.13
18.11,1.07
18.1125,0.923
18.115,0.721
18.1175,0.495
18.12,0.273
18.1225,0.0742
18.125,-0.0883
18.1275,-0.206
18.13,-0.279
18.1325,-0.308
18.135,-0.304
18.1375,-0.275
18.14,-0.232
18.1425,-0.185
18.145,-0.14
18.1475,-0.103
18.15,-0.0741
18.1525,-0.0542
18.155,-0.0406
18.1575,-0.0313
18.16,-0.0251
18.1625,-0.0207
18.165,-0.0173
18.1675,-0.014
18.17,-0.0104
18.1725,-0.0061
18.175,-0.0011
18.1775,0.0048
18.18,0.011
18.1825,0.0178
18.185,0.0253
18.1875,0.0336
18.19,0.0427
18.1925,0.0526
18.195,0.0634
18.1975,0.0751
18.2,0.0877
18.2025,0.101
18.205,0.116
18.2075,0.131
18.21,0.147
18.2125,0.164
18.215,0.181
18.2175,0.2
18.22,0.218
18.2225,0.238
18.225,0.257
18.2275,0.276
18.23,0.295
18.2325,0.313
18.235,0.331
18.2375,0.349
18.24,0.365
18.2425,0.38
18.245,0.394
18.2475,0.407
18.25,0.419
18.2525,0.428
18.255,0.436
18.2575,0.442
18.26,0.446
18.2625,0.448
18.265,0.448
18.2675,0.445
18.27,0.44
18.2725,0.432
18.275,0.423
18.2775,0.412
18.28,0.399
18.2825,0.385
18.285,0.37
18.2875,0.354
18.29,0.338
18.2925,0.32
18.295,0.303
18.2975,0.285
18.3,0.266
18.3025,0.248
18.305,0.23
18.3075,0.212
18.31,0.195
18.3125,0.178
18.315,0.161
18.3175,0.146
18.32,0.13
18.3225,0.116
18.325,0.103
18.3275,0.09
18.33,0.0784
18.3325,0.0677
18.335,0.0581
18.3375,0.0495
18.34,0.0419
18.3425,0.0351
18.345,0.0292
18.3475,0.024
18.35,0.0195
18.3525,0.0157
18.355,0.0125
18.3575,0.0098
18.36,0.0076
18.3625,0.0058
18.365,0.0045
18.3675,0.0035
18.37,0.0027
18.3725,0.0023
18.375,0.0021
18.3775,0.0021
18.38,0.0023
18.3825,0.0027
18.385,0.0032
18.3875,0.0038
18.39,0.0044
18.3925,0.0052
18.395,0.006
18.3975,0.0068
18.4,0.0077
18.4025,0.0086
18.405,0.0096
18.4075,0.0105
18.41,0.0115
18.4125,0.0125
18.415,0.0135
18.4175,0.0145
18.42,0.0155
18.4225,0.0165
18.425,0.0175
18.4275,0.0185
18.43,0.0194
18.4325,0.0203
18.435,0.0212
18.4375,0.022
18.44,0.0229
18.4425,0.0237
18.445,0.0245
18.4475,0.0254
18.45,0.0262
18.4525,0.027
18.455,0.0279
18.4575,0.0288
18.46,0.0298
18.4625,0.0309
18.465,0.032
18.4675,0.0333
18.47,0.0346
18.4725,0.0362
18.475,0.0382
18.4775,0.0406
18.48,0.0436
18.4825,0.0473
18.485,0.0518
18.4875,0.0572
18.49,0.0636
18.4925,0.0711
18.495,0.0797
18.4975,0.0896
18.5,0.101
18.5025,0.114
18.505,0.128
18.5075,0.144
18.51,0.161
18.5125,0.179
18.515,0.198
18.5175,0.217
18.52,0.236
18.5225,0.254
18.525,0.271
18.5275,0.287
18.53,0.301
18.5325,0.313
18.535,0.322
18.5375,0.329
18.54,0.332
18.5425,0.332
18.545,0.329
18.5475,0.321
18.55,0.311
18.5525,0.298
18.555,0.282
18.5575,0.266
18.56,0.248
18.5625,0.23
18.565,0.211
18.5675,0.193
18.57,0.175
18.5725,0.158
18.575,0.142
18.5775,0.127
18.58,0.113
18.5825,0.101
18.585,0.09
18.5875,0.0808
18.59,0.0746
18.5925,0.0713
18.595,0.0686
18.5975,0.0647
18.6,0.0583
18.6025,0.0484
18.605,0.0346
18.6075,0.0168
18.61,-0.0047
18.6125,-0.029
18.615,-0.055
18.6175,-0.0812
18.62,-0.105
18.6225,-0.125
18.625,-0.132
18.6275,-0.112
18.63,-0.0569
18.6325,0.038
18.635,0.173
18.6375,0.343
18.64,0.54
18.6425,0.75
18.645,0.951
18.6475,1.11
18.65,1.19
18.6525,1.19
18.655,1.1
18.6575,0.933
18.66,0.724
18.6625,0.498
18.665,0.279
18.6675,0.0872
18.67,-0.0655
18.6725,-0.173
18.675,-0.236
18.6775,-0.259
18.68,-0.248
18.6825,-0.217
18.685,-0.174
18.6875,-0.128
18.69,-0.0843
18.6925,-0.0475
18.695,-0.0192
18.6975,0.0007
18.7,0.015
18.7025,0.0257
18.705,0.0337
18.7075,0.0395
18.71,0.0438
18.7125,0.0472
18.715,0.0501
18.7175,0.053
18.72,0.0562
18.7225,0.06
18.725,0.0647
18.7275,0.0703
18.73,0.077
18.7325,0.0848
18.735,0.0937
18.7375,0.103
18.74,0.114
18.7425,0.125
18.745,0.137
18.7475,0.15
18.75,0.163
18.7525,0.178
18.755,0.193
18.7575,0.209
18.76,0.225
18.7625,0.243
18.765,0.26
18.7675,0.279
18.77,0.297
18.7725,0.315
18.775,0.334
18.7775,0.352
18.78,0.37
18.7825,0.387
18.785,0.404
18.7875,0.42
18.79,0.434
18.7925,0.448
18.795,0.459
18.7975,0.469
18.8,0.478
18.8025,0.484
18.805,0.489
18.8075,0.491
18.81,0.492
18.8125,0.49
18.815,0.486
18.8175,0.481
18.82,0.473
18.8225,0.463
18.825,0.452
18.8275,0.439
18.83,0.425
18.8325,0.409
18.835,0.392
18.8375,0.375
18.84,0.356
18.8425,0.337
18.845,0.318
18.8475,0.298
18.85,0.279
18.8525,0.259
18.855,0.24
18.8575,0.222
18.86,0.204
18.8625,0.186
18.865,0.17
18.8675,0.154
18.87,0.139
18.8725,0.125
18.875,0.112
18.8775,0.1
18.88,0.0889
18.8825,0.0787
18.885,0.0695
18.8875,0.0613
18.89,0.0539
18.8925,0.0473
18.895,0.0414
18.8975,0.0362
18.9,0.0316
18.9025,0.0276
18.905,0.0242
18.9075,0.0211
18.91,0.0186
18.9125,0.0164
18.915,0.0145
18.9175,0.013
18.92,0.0117
18.9225,0.0107
18.925,0.0099
18.9275,0.0093
18.93,0.0088
18.9325,0.0085
18.935,0.0083
18.9375,0.0082
18.94,0.0082
18.9425,0.0082
18.945,0.0084
18.9475,0.0085
18.95,0.0088
18.9525,0.009
18.955,0.0093
18.9575,0.0097
18.96,0.0101
18.9625,0.0105
18.965,0.011
18.9675,0.0115
18.97,0.012
18.9725,0.0126
18.975,0.0131
18.9775,0.0137
18.98,0.0143
18.9825,0.0148
18.985,0.0154
18.9875,0.016
18.99,0.0166
18.9925,0.0171
18.995,0.0177
18.9975,0.0184
19,0.019
19.0025,0.0197
19.005,0.0204
19.0075,0.0211
19.01,0.0219
19.0125,0.0228
19.015,0.0238
19.0175,0.0248
19.02,0.026
19.0225,0.0275
19.025,0.0293
19.0275,0.0315
19.03,0.0329
19.0325,0.0375
19.035,0.0481
19.0375,0.0596
19.04,0.072
19.0425,0.0853
19.045,0.0994
19.0475,0.114
19.05,0.13
19.0525,0.147
19.055,0.165
19.0575,0.183
19.06,0.202
19.0625,0.221
19.065,0.24
19.0675,0.259
19.07,0.277
19.0725,0.295
19.075,0.313
19.0775,0.329
19.08,0.345
19.0825,0.36
19.085,0.373
19.0875,0.385
19.09,0.395
19.0925,0.404
19.095,0.411
19.0975,0.416
19.1,0.42
19.1025,0.421
19.105,0.42
19.1075,0.416
19.11,0.41
19.1125,0.402
19.115,0.393
19.1175,0.381
19.12,0.368
19.1225,0.353
19.125,0.338
19.1275,0.321
19.13,0.304
19.1325,0.286
19.135,0.267
19.1375,0.248
19.14,0.229
19.1425,0.211
19.145,0.192
19.1475,0.173
19.15,0.155
19.1525,0.138
19.155,0.121
19.1575,0.104
19.16,0.0889
19.1625,0.0744
19.165,0.0608
19.1675,0.0482
19.17,0.0367
19.1725,0.0263
19.175,0.0169
19.1775,0.0085
19.18,0.0009
19.1825,-0.0059
19.185,-0.0119
19.1875,-0.0171
19.19,-0.0217
19.1925,-0.0257
19.195,-0.0291
19.1975,-0.032
19.2,-0.0344
19.2025,-0.0363
19.205,-0.0378
19.2075,-0.039
19.21,-0.0398
19.2125,-0.0404
19.215,-0.0407
19.2175,-0.0408
19.22,-0.0407
19.2225,-0.0404
19.225,-0.04
19.2275,-0.0395
19.23,-0.0389
19.2325,-0.0383
19.235,-0.0376
19.2375,-0.0368
19.24,-0.036
19.2425,-0.0352
19.245,-0.0343
19.2475,-0.0334
19.25,-0.0325
19.2525,-0.0315
19.255,-0.0306
19.2575,-0.0296
19.26,-0.0286
19.2625,-0.0277
19.265,-0.0267
19.2675,-0.0257
19.27,-0.0248
19.2725,-0.0238
19.275,-0.0228
19.2775,-0.0218
19.28,-0.0209
19.2825,-0.0199
19.285,-0.0189
19.2875,-0.0179
19.29,-0.0168
19.2925,-0.0158
19.295,-0.0147
19.2975,-0.0136
19.3,-0.0125
19.3025,-0.0113
19.305,-0.0099
19.3075,-0.0083
19.31,-0.0064
19.3125,-0.004
19.315,-0.0013
19.3175,0.0021
19.32,0.0061
19.3225,0.0108
19.325,0.0164
19.3275,0.0228
19.33,0.0304
19.3325,0.039
19.335,0.0489
19.3375,0.0602
19.34,0.073
19.3425,0.0875
19.345,0.104
19.3475,0.122
19.35,0.141
19.3525,0.161
19.355,0.18
19.3575,0.199
19.36,0.217
19.3625,0.234
19.365,0.249
19.3675,0.262
19.37,0.272
19.3725,0.28
19.375,0.286
19.3775,0.288
19.38,0.288
19.3825,0.284
19.385,0.278
19.3875,0.268
19.39,0.255
19.3925,0.239
19.395,0.222
19.3975,0.204
19.4,0.185
19.4025,0.166
19.405,0.148
19.4075,0.129
19.41,0.112
19.4125,0.0962
19.415,0.0815
19.4175,0.0682
19.42,0.0565
19.4225,0.0464
19.425,0.0377
19.4275,0.0308
19.43,0.0254
19.4325,0.0206
19.435,0.0156
19.4375,0.0097
19.44,0.0021
19.4425,-0.0079
19.445,-0.021
19.4475,-0.038
19.45,-0.0595
19.4525,-0.0863
19.455,-0.12
19.4575,-0.15
19.46,-0.166
19.4625,-0.158
19.465,-0.119
19.4675,-0.0452
19.47,0.0652
19.4725,0.211
19.475,0.389
19.4775,0.593
19.48,0.807
19.4825,0.994
19.485,1.12
19.4875,1.17
19.49,1.13
19.4925,1
19.495,0.817
19.4975,0.596
19.5,0.372
19.5025,0.168
19.505,-0.0011
19.5075,-0.126
19.51,-0.204
19.5125,-0.236
19.515,-0.235
19.5175,-0.211
19.52,-0.174
19.5225,-0.13
19.525,-0.0866
19.5275,-0.0477
19.53,-0.0164
19.5325,0.0055
19.535,0.0198
19.5375,0.0291
19.54,0.0351
19.5425,0.0391
19.545,0.0422
19.5475,0.0452
19.55,0.0486
19.5525,0.0526
19.555,0.0571
19.5575,0.062
19.56,0.0673
19.5625,0.0733
19.565,0.08
19.5675,0.0875
19.57,0.0958
19.5725,0.105
19.575,0.115
19.5775,0.126
19.58,0.137
19.5825,0.15
19.585,0.164
19.5875,0.178
19.59,0.194
19.5925,0.21
19.595,0.227
19.5975,0.244
19.6,0.262
19.6025,0.281
19.605,0.299
19.6075,0.318
19.61,0.336
19.6125,0.354
19.615,0.371
19.6175,0.388
19.62,0.404
19.6225,0.42
19.625,0.433
19.6275,0.446
19.63,0.457
19.6325,0.466
19.635,0.474
19.6375,0.479
19.64,0.482
19.6425,0.483
19.645,0.482
19.6475,0.479
19.65,0.474
19.6525,0.467
19.655,0.458
19.6575,0.447
19.66,0.435
19.6625,0.421
19.665,0.406
19.6675,0.389
19.67,0.372
19.6725,0.354
19.675,0.335
19.6775,0.315
19.68,0.296
19.6825,0.276
19.685,0.257
19.6875,0.239
19.69,0.22
19.6925,0.203
19.695,0.186
19.6975,0.17
19.7,0.154
19.7025,0.14
19.705,0.127
19.7075,0.114
19.71,0.103
19.7125,0.0921
19.715,0.0827
19.7175,0.0741
19.72,0.0666
19.7225,0.0599
19.725,0.054
19.7275,0.0489
19.73,0.0445
19.7325,0.0406
19.735,0.0374
19.7375,0.0346
19.74,0.0323
19.7425,0.0304
19.745,0.0289
19.7475,0.0277
19.75,0.0268
19.7525,0.0261
19.755,0.0256
19.7575,0.0253
19.76,0.0251
19.7625,0.0251
19.765,0.0251
19.7675,0.0251
19.77,0.0253
19.7725,0.0254
19.775,0.0255
19.7775,0.0257
19.78,0.0258
19.7825,0.026
19.785,0.0261
19.7875,0.0262
19.79,0.0262
19.7925,0.0263
19.795,0.0263
19.7975,0.0262
19.8,0.0261
19.8025,0.026
19.805,0.0259
19.8075,0.0258
19.81,0.0256
19.8125,0.0255
19.815,0.0254
19.8175,0.0252
19.82,0.0251
19.8225,0.0251
19.825,0.0251
19.8275,0.0252
19.83,0.0253
19.8325,0.0256
19.835,0.0259
19.8375,0.0265
19.84,0.0271
19.8425,0.028
19.845,0.029
19.8475,0.0302
19.85,0.0319
19.8525,0.034
19.855,0.0367
19.8575,0.0401
19.86,0.0442
19.8625,0.0492
19.865,0.0552
19.8675,0.0623
19.87,0.0705
19.8725,0.0799
19.875,0.0907
19.8775,0.103
19.88,0.116
19.8825,0.132
19.885,0.149
19.8875,0.167
19.89,0.187
19.8925,0.206
19.895,0.226
19.8975,0.246
19.9,0.265
19.9025,0.283
19.905,0.299
19.9075,0.313
19.91,0.325
19.9125,0.335
19.915,0.342
19.9175,0.345
19.92,0.345
19.9225,0.341
19.925,0.333
19.9275,0.322
19.93,0.309
19.9325,0.293
19.935,0.276
19.9375,0.258
19.94,0.239
19.9425,0.221
19.945,0.202
19.9475,0.184
19.95,0.167
19.9525,0.15
19.955,0.135
19.9575,0.122
19.96,0.109
19.9625,0.0985
19.965,0.0893
19.9675,0.0822
19.97,0.0785
19.9725,0.0758
19.975,0.0719
19.9775,0.0653
19.98,0.0549
19.9825,0.0403
19.985,0.0212
19.9875,-0.0017
19.99,-0.0275
19.9925,-0.0546
19.995,-0.0811
19.9975,-0.104
20,-0.121
20.0025,-0.119
20.005,-0.086
20.0075,-0.0148
20.01,0.0976
20.0125,0.249
20.015,0.433
20.0175,0.638
20.02,0.846
20.0225,1.03
20.025,1.15
20.0275,1.2
20.03,1.15
20.0325,1.02
20.035,0.832
20.0375,0.611
20.04,0.385
20.0425,0.177
20.045,0.0018
20.0475,-0.131
20.05,-0.218
20.0525,-0.263
20.055,-0.27
20.0575,-0.248
20.06,-0.211
20.0625,-0.165
20.065,-0.12
20.0675,-0.0793
20.07,-0.0464
20.0725,-0.0222
20.075,-0.0054
20.0775,0.0071
20.08,0.0164
20.0825,0.0232
20.085,0.0282
20.0875,0.0319
20.09,0.0349
20.0925,0.0375
20.095,0.0403
20.0975,0.0435
20.1,0.0474
20.1025,0.0522
20.105,0.058
20.1075,0.065
20.11,0.073
20.1125,0.0822
20.115,0.0922
20.1175,0.103
20.12,0.114
20.1225,0.127
20.125,0.14
20.1275,0.153
20.13,0.168
20.1325,0.184
20.135,0.2
20.1375,0.217
20.14,0.234
20.1425,0.252
20.145,0.27
20.1475,0.289
20.15,0.307
20.1525,0.326
20.155,0.344
20.1575,0.362
20.16,0.379
20.1625,0.395
20.165,0.411
20.1675,0.425
20.17,0.438
20.1725,0.45
20.175,0.459
20.1775,0.467
20.18,0.473
20.1825,0.477
20.185,0.48
20.1875,0.48
20.19,0.477
20.1925,0.473
20.195,0.467
20.1975,0.459
20.2,0.449
20.2025,0.438
20.205,0.424
20.2075,0.41
20.21,0.394
20.2125,0.377
20.215,0.359
20.2175,0.34
20.22,0.321
20.2225,0.302
20.225,0.282
20.2275,0.263
20.23,0.243
20.2325,0.224
20.235,0.206
20.2375,0.188
20.24,0.17
20.2425,0.154
20.245,0.138
20.2475,0.123
20.25,0.109
20.2525,0.0959
20.255,0.0838
20.2575,0.0726
20.26,0.0623
20.2625,0.0531
20.265,0.0447
20.2675,0.0372
20.27,0.0305
20.2725,0.0245
20.275,0.0191
20.2775,0.0144
20.28,0.0103
20.2825,0.0066
20.285,0.0035
20.2875,0.0007
20.29,-0.0016
20.2925,-0.0036
20.295,-0.0054
20.2975,-0.0068
20.3,-0.008
20.3025,-0.0089
20.305,-0.0097
20.3075,-0.0104
20.31,-0.0109
20.3125,-0.0113
20.315,-0.0116
20.3175,-0.0118
20.32,-0.0119
20.3225,-0.012
20.325,-0.0121
20.3275,-0.0121
20.33,-0.0121
20.3325,-0.0121
20.335,-0.012
20.3375,-0.0119
20.34,-0.0118
20.3425,-0.0117
20.345,-0.0115
20.3475,-0.0114
20.35,-0.0112
20.3525,-0.0111
20.355,-0.0109
20.3575,-0.0108
20.36,-0.0107
20.3625,-0.0106
20.365,-0.0104
20.3675,-0.0103
20.37,-0.0102
20.3725,-0.01
20.375,-0.0098
20.3775,-0.0096
20.38,-0.0093
20.3825,-0.0089
20.385,-0.0085
20.3875,-0.008
20.39,-0.0074
20.3925,-0.0067
20.395,-0.0059
20.3975,-0.005
20.4,-0.0038
20.4025,-0.0022
20.405,-0.0002
20.4075,0.0023
20.41,0.0055
20.4125,0.0095
20.415,0.0143
20.4175,0.0201
20.42,0.0269
20.4225,0.0349
20.425,0.0441
20.4275,0.0545
20.43,0.0664
20.4325,0.0797
20.435,0.0946
20.4375,0.111
20.44,0.128
20.4425,0.146
20.445,0.164
20.4475,0.182
20.45,0.2
20.4525,0.217
20.455,0.232
20.4575,0.246
20.46,0.258
20.4625,0.268
20.465,0.275
20.4675,0.279
20.47,0.279
20.4725,0.276
20.475,0.27
20.4775,0.26
20.48,0.248
20.4825,0.234
20.485,0.217
20.4875,0.2
20.49,0.182
20.4925,0.163
20.495,0.143
20.4975,0.125
20.5,0.106
20.5025,0.0884
20.505,0.0718
20.5075,0.0565
20.51,0.0427
20.5125,0.0306
20.515,0.0197
20.5175,0.0104
20.52,0.0026
20.5225,-0.0039
20.525,-0.0094
20.5275,-0.0144
20.53,-0.0195
20.5325,-0.0256
20.535,-0.0337
20.5375,-0.045
20.54,-0.0608
20.5425,-0.0827
20.545,-0.11
20.5475,-0.141
20.55,-0.168
20.5525,-0.187
20.555,-0.191
20.5575,-0.174
20.56,-0.127
20.5625,-0.0426
20.565,0.0809
20.5675,0.243
20.57,0.435
20.5725,0.644
20.575,0.848
20.5775,1.02
20.58,1.13
20.5825,1.15
20.585,1.09
20.5875,0.945
20.59,0.747
20.5925,0.523
20.595,0.298
20.5975,0.0944
20.6,-0.0742
20.6025,-0.2
20.605,-0.281
20.6075,-0.319
20.61,-0.323
20.6125,-0.304
20.615,-0.269
20.6175,-0.225
20.62,-0.18
20.6225,-0.138
20.625,-0.104
20.6275,-0.0806
20.63,-0.0647
20.6325,-0.0542
20.635,-0.0473
20.6375,-0.0427
20.64,-0.0391
20.6425,-0.0358
20.645,-0.0324
20.6475,-0.0288
20.65,-0.0249
20.6525,-0.0205
20.655,-0.0155
20.6575,-0.0099
20.66,-0.0037
20.6625,0.0032
20.665,0.0109
20.6675,0.0193
20.67,0.0285
20.6725,0.0386
20.675,0.0495
20.6775,0.0612
20.68,0.0738
20.6825,0.0872
20.685,0.101
20.6875,0.117
20.69,0.133
20.6925,0.15
20.695,0.167
20.6975,0.185
20.7,0.203
20.7025,0.221
20.705,0.239
20.7075,0.257
20.71,0.275
20.7125,0.292
20.715,0.308
20.7175,0.324
20.72,0.339
20.7225,0.352
20.725,0.365
20.7275,0.376
20.73,0.386
20.7325,0.394
20.735,0.4
20.7375,0.405
20.74,0.408
20.7425,0.408
20.745,0.407
20.7475,0.403
20.75,0.397
20.7525,0.389
20.755,0.379
20.7575,0.368
20.76,0.355
20.7625,0.341
20.765,0.325
20.7675,0.309
20.77,0.292
20.7725,0.274
20.775,0.255
20.7775,0.236
20.78,0.217
20.7825,0.197
20.785,0.178
20.7875,0.159
20.79,0.14
20.7925,0.121
20.795,0.103
20.7975,0.0853
20.8,0.0687
20.8025,0.0529
20.805,0.0382
20.8075,0.0246
20.81,0.0119
20.8125,0.0001
20.815,-0.0107
20.8175,-0.0207
20.82,-0.0298
20.8225,-0.0381
20.825,-0.0456
20.8275,-0.0525
20.83,-0.0586
20.8325,-0.064
20.835,-0.0688
20.8375,-0.0731
20.84,-0.0768
20.8425,-0.08
20.845,-0.0828
20.8475,-0.0851
20.85,-0.0871
20.8525,-0.0887
20.855,-0.0901
20.8575,-0.0913
20.86,-0.0922
20.8625,-0.093
20.865,-0.0938
20.8675,-0.0944
20.87,-0.0949
20.8725,-0.0953
20.875,-0.0957
20.8775,-0.096
20.88,-0.0963
20.8825,-0.0964
20.885,-0.0966
20.8875,-0.0967
20.89,-0.0968
20.8925,-0.0969
20.895,-0.097
20.8975,-0.0971
20.9,-0.0971
20.9025,-0.0971
20.905,-0.0972
20.9075,-0.0972
20.91,-0.0972
20.9125,-0.0972
20.915,-0.0972
20.9175,-0.0971
20.92,-0.0971
20.9225,-0.097
20.925,-0.0969
20.9275,-0.0967
20.93,-0.0965
20.9325,-0.0963
20.935,-0.096
20.9375,-0.0956
20.94,-0.0953
20.9425,-0.0949
20.945,-0.0944
20.9475,-0.0938
20.95,-0.0931
20.9525,-0.0922
20.955,-0.091
20.9575,-0.0896
20.96,-0.0878
20.9625,-0.0856
20.965,-0.0828
20.9675,-0.0795
20.97,-0.0755
20.9725,-0.0709
20.975,-0.0653
20.9775,-0.0587
20.98,-0.0509
20.9825,-0.0417
20.985,-0.031
20.9875,-0.0189
20.99,-0.0053
20.9925,0.0096
20.995,0.0258
20.9975,0.043
21,0.0611
21.0025,0.0798
21.005,0.0988
21.0075,0.118
21.01,0.136
21.0125,0.154
21.015,0.17
21.0175,0.184
21.02,0.196
21.0225,0.205
21.025,0.211
21.0275,0.214
21.03,0.213
21.0325,0.21
21.035,0.203
21.0375,0.193
21.04,0.181
21.0425,0.166
21.045,0.15
21.0475,0.132
21.05,0.113
21.0525,0.0936
21.055,0.0742
21.0575,0.055
21.06,0.0365
21.0625,0.019
21.065,0.0026
21.0675,-0.0127
21.07,-0.0267
21.0725,-0.0391
21.075,-0.0498
21.0775,-0.0588
21.08,-0.0661
21.0825,-0.0722
21.085,-0.0773
21.0875,-0.0822
21.09,-0.0876
21.0925,-0.0943
21.095,-0.103
21.0975,-0.116
21.1,-0.134
21.1025,-0.168
21.105,-0.212
21.1075,-0.254
21.11,-0.285
21.1125,-0.298
21.115,-0.288
21.1175,-0.249
21.12,-0.18
21.1225,-0.0805
21.125,0.0494
21.1275,0.207
21.13,0.387
21.1325,0.584
21.135,0.788
21.1375,0.962
21.14,1.07
21.1425,1.1
21.145,1.04
21.1475,0.906
21.15,0.711
21.1525,0.487
21.155,0.263
21.1575,0.062
21.16,-0.102
21.1625,-0.22
21.165,-0.293
21.1675,-0.322
21.17,-0.317
21.1725,-0.29
21.175,-0.25
21.1775,-0.205
21.18,-0.162
21.1825,-0.124
21.185,-0.0945
21.1875,-0.0736
21.19,-0.0597
21.1925,-0.0503
21.195,-0.0442
21.1975,-0.0401
21.2,-0.037
21.2025,-0.0342
21.205,-0.031
21.2075,-0.0273
21.21,-0.0228
21.2125,-0.0176
21.215,-0.012
21.2175,-0.006
21.22,0.0006
21.2225,0.008
21.225,0.016
21.2275,0.0249
21.23,0.0346
21.2325,0.0452
21.235,0.0566
21.2375,0.0689
21.24,0.0821
21.2425,0.096
21.245,0.111
21.2475,0.126
21.25,0.143
21.2525,0.16
21.255,0.177
21.2575,0.195
21.26,0.213
21.2625,0.231
21.265,0.249
21.2675,0.266
21.27,0.283
21.2725,0.299
21.275,0.314
21.2775,0.328
21.28,0.341
21.2825,0.353
21.285,0.363
21.2875,0.371
21.29,0.378
21.2925,0.383
21.295,0.386
21.2975,0.387
21.3,0.386
21.3025,0.382
21.305,0.377
21.3075,0.369
21.31,0.359
21.3125,0.348
21.315,0.335
21.3175,0.32
21.32,0.305
21.3225,0.288
21.325,0.271
21.3275,0.253
21.33,0.235
21.3325,0.216
21.335,0.197
21.3375,0.178
21.34,0.159
21.3425,0.14
21.345,0.122
21.3475,0.104
21.35,0.087
21.3525,0.0705
21.355,0.0547
21.3575,0.0399
21.36,0.0261
21.3625,0.0134
21.365,0.0017
21.3675,-0.0089
21.37,-0.0185
21.3725,-0.0272
21.375,-0.035
21.3775,-0.042
21.38,-0.0482
21.3825,-0.0537
21.385,-0.0585
21.3875,-0.0627
21.39,-0.0663
21.3925,-0.0693
21.395,-0.0719
21.3975,-0.074
21.4,-0.0757
21.4025,-0.077
21.405,-0.078
21.4075,-0.0787
21.41,-0.0791
21.4125,-0.0794
21.415,-0.0794
21.4175,-0.0794
21.42,-0.0792
21.4225,-0.0789
21.425,-0.0786
21.4275,-0.0783
21.43,-0.0778
21.4325,-0.0774
21.435,-0.0769
21.4375,-0.0763
21.44,-0.0758
21.4425,-0.0752
21.445,-0.0746
21.4475,-0.074
21.45,-0.0734
21.4525,-0.0728
21.455,-0.0722
21.4575,-0.0716
21.46,-0.071
21.4625,-0.0704
21.465,-0.0698
21.4675,-0.0692
21.47,-0.0686
21.4725,-0.0681
21.475,-0.0675
21.4775,-0.0669
21.48,-0.0663
21.4825,-0.0657
21.485,-0.0651
21.4875,-0.0644
21.49,-0.0637
21.4925,-0.063
21.495,-0.0622
21.4975,-0.0613
21.5,-0.0603
21.5025,-0.059
21.505,-0.0576
21.5075,-0.0559
21.51,-0.0538
21.5125,-0.0512
21.515,-0.0481
21.5175,-0.0443
21.52,-0.0398
21.5225,-0.0344
21.525,-0.0279
21.5275,-0.0204
21.53,-0.0114
21.5325,-0.0011
21.535,0.0107
21.5375,0.024
21.54,0.0387
21.5425,0.0547
21.545,0.0719
21.5475,0.0899
21.55,0.109
21.5525,0.128
21.555,0.147
21.5575,0.165
21.56,0.182
21.5625,0.198
21.565,0.212
21.5675,0.223
21.57,0.232
21.5725,0.237
21.575,0.239
21.5775,0.238
21.58,0.233
21.5825,0.226
21.585,0.215
21.5875,0.202
21.59,0.187
21.5925,0.17
21.595,0.152
21.5975,0.133
21.6,0.114
21.6025,0.0956
21.605,0.0777
21.6075,0.0608
21.61,0.0451
21.6125,0.0308
21.615,0.018
21.6175,0.0067
21.62,-0.003
21.6225,-0.0112
21.625,-0.0181
21.6275,-0.0239
21.63,-0.0286
21.6325,-0.0327
21.635,-0.0376
21.6375,-0.0443
21.64,-0.054
21.6425,-0.0676
21.645,-0.0856
21.6475,-0.109
21.65,-0.138
21.6525,-0.169
21.655,-0.194
21.6575,-0.205
21.66,-0.196
21.6625,-0.161
21.665,-0.0919
21.6675,0.0148
21.67,0.164
21.6725,0.351
21.675,0.558
21.6775,0.762
21.68,0.941
21.6825,1.07
21.685,1.12
21.6875,1.07
21.69,0.938
21.6925,0.753
21.695,0.536
21.6975,0.312
21.7,0.107
21.7025,-0.0579
21.705,-0.178
21.7075,-0.253
21.71,-0.286
21.7125,-0.283
21.715,-0.254
21.7175,-0.212
21.72,-0.165
21.7225,-0.12
21.725,-0.0822
21.7275,-0.0536
21.73,-0.0345
21.7325,-0.0229
21.735,-0.0154
21.7375,-0.01
21.74,-0.006
21.7425,-0.0027
21.745,0.0005
21.7475,0.0039
21.75,0.008
21.7525,0.0127
21.755,0.0179
21.7575,0.0237
21.76,0.0301
21.7625,0.0374
21.765,0.0454
21.7675,0.0543
21.77,0.064
21.7725,0.0747
21.775,0.0863
21.7775,0.0988
21.78,0.112
21.7825,0.127
21.785,0.142
21.7875,0.158
21.79,0.175
21.7925,0.193
21.795,0.211
21.7975,0.23
21.8,0.249
21.8025,0.268
21.805,0.286
21.8075,0.305
21.81,0.322
21.8125,0.339
21.815,0.355
21.8175,0.371
21.82,0.384
21.8225,0.397
21.825,0.408
21.8275,0.418
21.83,0.425
21.8325,0.431
21.835,0.435
21.8375,0.437
21.84,0.437
21.8425,0.434
21.845,0.429
21.8475,0.421
21.85,0.412
21.8525,0.401
21.855,0.388
21.8575,0.374
21.86,0.359
21.8625,0.342
21.865,0.325
21.8675,0.307
21.87,0.289
21.8725,0.27
21.875,0.251
21.8775,0.232
21.88,0.214
21.8825,0.195
21.885,0.177
21.8875,0.159
21.89,0.142
21.8925,0.126
21.895,0.111
21.8975,0.0965
21.9,0.0832
21.9025,0.071
21.905,0.0599
21.9075,0.0498
21.91,0.0407
21.9125,0.0326
21.915,0.0253
21.9175,0.0188
21.92,0.0132
21.9225,0.0082
21.925,0.004
21.9275,0.0004
21.93,-0.0027
21.9325,-0.0052
21.935,-0.0072
21.9375,-0.0088
21.94,-0.0099
21.9425,-0.0108
21.945,-0.0113
21.9475,-0.0115
21.95,-0.0115
21.9525,-0.0114
21.955,-0.011
21.9575,-0.0106
21.96,-0.0101
21.9625,-0.0096
21.965,-0.009
21.9675,-0.0083
21.97,-0.0077
21.9725,-0.0069
21.975,-0.0062
21.9775,-0.0055
21.98,-0.0047
21.9825,-0.004
21.985,-0.0033
21.9875,-0.0026
21.99,-0.0019
21.9925,-0.0013
21.995,-0.0006
21.9975,0
22,0.0006
22.0025,0.0011
22.005,0.0017
22.0075,0.0023
22.01,0.0028
22.0125,0.0034
22.015,0.0039
22.0175,0.0045
22.02,0.0051
22.0225,0.0057
22.025,0.0064
22.0275,0.0071
22.03,0.0079
22.0325,0.0087
22.035,0.0097
22.0375,0.0108
22.04,0.0121
22.0425,0.0137
22.045,0.0156
22.0475,0.018
22.05,0.0209
22.0525,0.0245
22.055,0.0289
22.0575,0.0341
22.06,0.0404
22.0625,0.0479
22.065,0.0565
22.0675,0.0666
22.07,0.0782
22.0725,0.0913
22.075,0.106
22.0775,0.122
22.08,0.139
22.0825,0.157
22.085,0.176
22.0875,0.196
22.09,0.215
22.0925,0.234
22.095,0.252
22.0975,0.268
22.1,0.282
22.1025,0.294
22.105,0.303
22.1075,0.308
22.11,0.311
22.1125,0.31
22.115,0.305
22.1175,0.298
22.12,0.287
22.1225,0.274
22.125,0.258
22.1275,0.241
22.13,0.222
22.1325,0.203
22.135,0.185
22.1375,0.166
22.14,0.148
22.1425,0.131
22.145,0.116
22.1475,0.102
22.15,0.0895
22.1525,0.0787
22.155,0.0694
22.1575,0.0615
22.16,0.0549
22.1625,0.0493
22.165,0.0445
22.1675,0.04
22.17,0.0348
22.1725,0.0271
22.175,0.0158
22.1775,-0.0001
22.18,-0.021
22.1825,-0.0474
22.185,-0.0776
22.1875,-0.105
22.19,-0.123
22.1925,-0.124
22.195,-0.101
22.1975,-0.045
22.2,0.0497
22.2025,0.186
22.205,0.361
22.2075,0.562
22.21,0.771
22.2125,0.964
22.215,1.11
