0.0025,0.003
0.005,0.002
0.0075,0.003
0.01,0.007
0.0125,0.013
0.015,0.019
0.0175,0.025
0.02,0.028
0.0225,0.027
0.025,0.021
0.0275,0.013
0.03,0.002
0.0325,-0.008
0.035,-0.018
0.0375,-0.026
0.04,-0.033
0.0425,-0.04
0.045,-0.048
0.0475,-0.056
0.05,-0.065
0.0525,-0.073
0.055,-0.078
0.0575,-0.081
0.06,-0.081
0.0625,-0.079
0.065,-0.076
0.0675,-0.075
0.07,-0.075
0.0725,-0.078
0.075,-0.082
0.0775,-0.087
0.08,-0.091
0.0825,-0.094
0.085,-0.094
0.0875,-0.092
0.09,-0.088
0.0925,-0.085
0.095,-0.084
0.0975,-0.085
0.1,-0.088
0.1025,-0.091
0.105,-0.094
0.1075,-0.095
0.11,-0.093
0.1125,-0.089
0.115,-0.083
0.1175,-0.078
0.12,-0.075
0.1225,-0.075
0.125,-0.08
0.1275,-0.089
0.13,-0.101
0.1325,-0.113
0.135,-0.123
0.1375,-0.13
0.14,-0.13
0.1425,-0.122
0.145,-0.102
0.1475,-0.069
0.15,-0.019
0.1525,0.048
0.155,0.133
0.1575,0.232
0.16,0.34
0.1625,0.448
0.165,0.547
0.1675,0.627
0.17,0.683
0.1725,0.708
0.175,0.698
0.1775,0.649
0.18,0.558
0.1825,0.429
0.185,0.271
0.1875,0.097
0.19,-0.074
0.1925,-0.222
0.195,-0.334
0.1975,-0.404
0.2,-0.434
0.2025,-0.435
0.205,-0.416
0.2075,-0.389
0.21,-0.361
0.2125,-0.335
0.215,-0.313
0.2175,-0.294
0.22,-0.277
0.2225,-0.261
0.225,-0.244
0.2275,-0.224
0.23,-0.202
0.2325,-0.176
0.235,-0.149
0.2375,-0.122
0.24,-0.099
0.2425,-0.083
0.245,-0.075
0.2475,-0.075
0.25,-0.079
0.2525,-0.084
0.255,-0.088
0.2575,-0.088
0.26,-0.084
0.2625,-0.076
0.265,-0.066
0.2675,-0.057
0.27,-0.051
0.2725,-0.047
0.275,-0.047
0.2775,-0.049
0.28,-0.051
0.2825,-0.052
0.285,-0.05
0.2875,-0.047
0.29,-0.042
0.2925,-0.037
0.295,-0.032
0.2975,-0.03
0.3,-0.031
0.3025,-0.033
0.305,-0.035
0.3075,-0.035
0.31,-0.033
0.3125,-0.03
0.315,-0.025
0.3175,-0.021
0.32,-0.018
0.3225,-0.018
0.325,-0.019
0.3275,-0.022
0.33,-0.024
0.3325,-0.025
0.335,-0.025
0.3375,-0.022
0.34,-0.019
0.3425,-0.014
0.345,-0.01
0.3475,-0.006
0.35,-0.003
0.3525,-0.001
0.355,0.002
0.3575,0.003
0.36,0.005
0.3625,0.006
0.365,0.007
0.3675,0.008
0.37,0.009
0.3725,0.009
0.375,0.011
0.3775,0.012
0.38,0.014
0.3825,0.016
0.385,0.018
0.3875,0.02
0.39,0.022
0.3925,0.024
0.395,0.027
0.3975,0.03
0.4,0.033
0.4025,0.036
0.405,0.039
0.4075,0.042
0.41,0.044
0.4125,0.048
0.415,0.052
0.4175,0.057
0.42,0.063
0.4225,0.07
0.425,0.078
0.4275,0.084
0.43,0.09
0.4325,0.096
0.435,0.101
0.4375,0.106
0.44,0.111
0.4425,0.117
0.445,0.123
0.4475,0.131
0.45,0.139
0.4525,0.147
0.455,0.156
0.4575,0.165
0.46,0.173
0.4625,0.181
0.465,0.189
0.4675,0.197
0.47,0.204
0.4725,0.211
0.475,0.218
0.4775,0.225
0.48,0.231
0.4825,0.237
0.485,0.242
0.4875,0.248
0.49,0.253
0.4925,0.257
0.495,0.26
0.4975,0.261
0.5,0.26
0.5025,0.258
0.505,0.256
0.5075,0.253
0.51,0.25
0.5125,0.248
0.515,0.244
0.5175,0.238
0.52,0.23
0.5225,0.22
0.525,0.208
0.5275,0.194
0.53,0.18
0.5325,0.166
0.535,0.152
0.5375,0.138
0.54,0.123
0.5425,0.108
0.545,0.094
0.5475,0.081
0.55,0.068
0.5525,0.057
0.555,0.046
0.5575,0.036
0.56,0.027
0.5625,0.017
0.565,0.009
0.5675,0.001
0.57,-0.006
0.5725,-0.012
0.575,-0.017
0.5775,-0.02
0.58,-0.024
0.5825,-0.027
0.585,-0.031
0.5875,-0.034
0.59,-0.037
0.5925,-0.039
0.595,-0.041
0.5975,-0.044
0.6,-0.046
0.6025,-0.048
0.605,-0.051
0.6075,-0.053
0.61,-0.055
0.6125,-0.055
0.615,-0.055
0.6175,-0.055
0.62,-0.054
0.6225,-0.052
0.625,-0.051
0.6275,-0.049
0.63,-0.047
0.6325,-0.047
0.635,-0.047
0.6375,-0.048
0.64,-0.05
0.6425,-0.051
0.645,-0.052
0.6475,-0.052
0.65,-0.051
0.6525,-0.049
0.655,-0.047
0.6575,-0.047
0.66,-0.048
0.6625,-0.05
0.665,-0.053
0.6675,-0.055
0.67,-0.055
0.6725,-0.054
0.675,-0.053
0.6775,-0.051
0.68,-0.05
0.6825,-0.049
0.685,-0.049
0.6875,-0.048
0.69,-0.048
0.6925,-0.048
0.695,-0.048
0.6975,-0.049
0.7,-0.05
0.7025,-0.051
0.705,-0.051
0.7075,-0.051
0.71,-0.051
0.7125,-0.05
0.715,-0.05
0.7175,-0.05
0.72,-0.05
0.7225,-0.049
0.725,-0.049
0.7275,-0.048
0.73,-0.048
0.7325,-0.048
0.735,-0.047
0.7375,-0.047
0.74,-0.047
0.7425,-0.048
0.745,-0.049
0.7475,-0.051
0.75,-0.054
0.7525,-0.057
0.755,-0.06
0.7575,-0.061
0.76,-0.061
0.7625,-0.06
0.765,-0.058
0.7675,-0.056
0.77,-0.055
0.7725,-0.055
0.775,-0.056
0.7775,-0.057
0.78,-0.057
0.7825,-0.057
0.785,-0.057
0.7875,-0.056
0.79,-0.055
0.7925,-0.055
0.795,-0.056
0.7975,-0.058
0.8,-0.059
0.8025,-0.06
0.805,-0.061
0.8075,-0.06
0.81,-0.059
0.8125,-0.057
0.815,-0.056
0.8175,-0.054
0.82,-0.054
0.8225,-0.054
0.825,-0.055
0.8275,-0.057
0.83,-0.059
0.8325,-0.06
0.835,-0.061
0.8375,-0.062
0.84,-0.061
0.8425,-0.06
0.845,-0.059
0.8475,-0.057
0.85,-0.055
0.8525,-0.054
0.855,-0.055
0.8575,-0.056
0.86,-0.059
0.8625,-0.062
0.865,-0.064
0.8675,-0.066
0.87,-0.065
0.8725,-0.064
0.875,-0.061
0.8775,-0.059
0.88,-0.057
0.8825,-0.056
0.885,-0.056
0.8875,-0.057
0.89,-0.057
0.8925,-0.057
0.895,-0.055
0.8975,-0.052
0.9,-0.048
0.9025,-0.044
0.905,-0.039
0.9075,-0.035
0.91,-0.033
0.9125,-0.032
0.915,-0.032
0.9175,-0.033
0.92,-0.034
0.9225,-0.034
0.925,-0.033
0.9275,-0.031
0.93,-0.026
0.9325,-0.02
0.935,-0.013
0.9375,-0.006
0.94,0.001
0.9425,0.006
0.945,0.01
0.9475,0.011
0.95,0.012
0.9525,0.013
0.955,0.014
0.9575,0.018
0.96,0.024
0.9625,0.031
0.965,0.037
0.9675,0.042
0.97,0.043
0.9725,0.04
0.975,0.035
0.9775,0.027
0.98,0.017
0.9825,0.008
0.985,-0.002
0.9875,-0.011
0.99,-0.019
0.9925,-0.028
0.995,-0.036
0.9975,-0.044
1,-0.051
1.0025,-0.058
1.005,-0.064
1.0075,-0.069
1.01,-0.072
1.0125,-0.074
1.015,-0.074
1.0175,-0.073
1.02,-0.071
1.0225,-0.069
1.025,-0.069
1.0275,-0.071
1.03,-0.074
1.0325,-0.078
1.035,-0.081
1.0375,-0.082
1.04,-0.081
1.0425,-0.078
1.045,-0.076
1.0475,-0.075
1.05,-0.076
1.0525,-0.08
1.055,-0.084
1.0575,-0.087
1.06,-0.088
1.0625,-0.086
1.065,-0.081
1.0675,-0.075
1.07,-0.071
1.0725,-0.069
1.075,-0.072
1.0775,-0.079
1.08,-0.09
1.0825,-0.103
1.085,-0.116
1.0875,-0.125
1.09,-0.129
1.0925,-0.125
1.095,-0.112
1.0975,-0.088
1.1,-0.05
1.1025,0.003
1.105,0.074
1.1075,0.162
1.11,0.264
1.1125,0.374
1.115,0.484
1.1175,0.582
1.12,0.662
1.1225,0.717
1.125,0.74
1.1275,0.726
1.13,0.671
1.1325,0.572
1.135,0.433
1.1375,0.263
1.14,0.079
1.1425,-0.1
1.145,-0.253
1.1475,-0.368
1.15,-0.438
1.1525,-0.466
1.155,-0.464
1.1575,-0.442
1.16,-0.411
1.1625,-0.38
1.165,-0.351
1.1675,-0.327
1.17,-0.307
1.1725,-0.29
1.175,-0.273
1.1775,-0.255
1.18,-0.233
1.1825,-0.207
1.185,-0.178
1.1875,-0.146
1.19,-0.117
1.1925,-0.092
1.195,-0.075
1.1975,-0.067
1.2,-0.067
1.2025,-0.071
1.205,-0.076
1.2075,-0.079
1.21,-0.079
1.2125,-0.076
1.215,-0.068
1.2175,-0.059
1.22,-0.051
1.2225,-0.044
1.225,-0.039
1.2275,-0.038
1.23,-0.038
1.2325,-0.039
1.235,-0.039
1.2375,-0.037
1.24,-0.033
1.2425,-0.028
1.245,-0.025
1.2475,-0.023
1.25,-0.025
1.2525,-0.029
1.255,-0.033
1.2575,-0.036
1.26,-0.037
1.2625,-0.034
1.265,-0.029
1.2675,-0.023
1.27,-0.018
1.2725,-0.014
1.275,-0.013
1.2775,-0.013
1.28,-0.015
1.2825,-0.016
1.285,-0.016
1.2875,-0.014
1.29,-0.011
1.2925,-0.007
1.295,-0.003
1.2975,0
1.3,0.001
1.3025,0.002
1.305,0.001
1.3075,0
1.31,0
1.3125,0.001
1.315,0.002
1.3175,0.005
1.32,0.009
1.3225,0.012
1.325,0.016
1.3275,0.019
1.33,0.022
1.3325,0.024
1.335,0.026
1.3375,0.028
1.34,0.031
1.3425,0.034
1.345,0.037
1.3475,0.041
1.35,0.045
1.3525,0.049
1.355,0.053
1.3575,0.057
1.36,0.06
1.3625,0.062
1.365,0.063
1.3675,0.064
1.37,0.066
1.3725,0.07
1.375,0.075
1.3775,0.082
1.38,0.089
1.3825,0.097
1.385,0.104
1.3875,0.111
1.39,0.119
1.3925,0.128
1.395,0.136
1.3975,0.145
1.4,0.153
1.4025,0.16
1.405,0.166
1.4075,0.171
1.41,0.176
1.4125,0.182
1.415,0.188
1.4175,0.194
1.42,0.201
1.4225,0.208
1.425,0.215
1.4275,0.222
1.43,0.228
1.4325,0.235
1.435,0.241
1.4375,0.247
1.44,0.253
1.4425,0.258
1.445,0.262
1.4475,0.267
1.45,0.271
1.4525,0.274
1.455,0.277
1.4575,0.278
1.46,0.277
1.4625,0.274
1.465,0.268
1.4675,0.26
1.47,0.249
1.4725,0.238
1.475,0.226
1.4775,0.214
1.48,0.203
1.4825,0.192
1.485,0.181
1.4875,0.169
1.49,0.157
1.4925,0.144
1.495,0.13
1.4975,0.115
1.5,0.1
1.5025,0.085
1.505,0.071
1.5075,0.059
1.51,0.048
1.5125,0.039
1.515,0.03
1.5175,0.022
1.52,0.014
1.5225,0.006
1.525,-0.002
1.5275,-0.009
1.53,-0.016
1.5325,-0.022
1.535,-0.028
1.5375,-0.032
1.54,-0.036
1.5425,-0.039
1.545,-0.041
1.5475,-0.043
1.55,-0.043
1.5525,-0.044
1.555,-0.045
1.5575,-0.046
1.56,-0.048
1.5625,-0.05
1.565,-0.051
1.5675,-0.051
1.57,-0.05
1.5725,-0.049
1.575,-0.048
1.5775,-0.048
1.58,-0.049
1.5825,-0.05
1.585,-0.051
1.5875,-0.053
1.59,-0.055
1.5925,-0.056
1.595,-0.056
1.5975,-0.056
1.6,-0.055
1.6025,-0.053
1.605,-0.051
1.6075,-0.05
1.61,-0.05
1.6125,-0.05
1.615,-0.051
1.6175,-0.052
1.62,-0.053
1.6225,-0.053
1.625,-0.054
1.6275,-0.055
1.63,-0.056
1.6325,-0.056
1.635,-0.057
1.6375,-0.056
1.64,-0.055
1.6425,-0.054
1.645,-0.052
1.6475,-0.052
1.65,-0.052
1.6525,-0.053
1.655,-0.054
1.6575,-0.055
1.66,-0.056
1.6625,-0.056
1.665,-0.056
1.6675,-0.055
1.67,-0.055
1.6725,-0.056
1.675,-0.056
1.6775,-0.057
1.68,-0.057
1.6825,-0.056
1.685,-0.055
1.6875,-0.054
1.69,-0.053
1.6925,-0.053
1.695,-0.052
1.6975,-0.052
1.7,-0.052
1.7025,-0.053
1.705,-0.053
1.7075,-0.054
1.71,-0.055
1.7125,-0.056
1.715,-0.057
1.7175,-0.057
1.72,-0.058
1.7225,-0.058
1.725,-0.057
1.7275,-0.055
1.73,-0.053
1.7325,-0.051
1.735,-0.048
1.7375,-0.047
1.74,-0.047
1.7425,-0.048
1.745,-0.051
1.7475,-0.054
1.75,-0.058
1.7525,-0.06
1.755,-0.061
1.7575,-0.062
1.76,-0.061
1.7625,-0.061
1.765,-0.06
1.7675,-0.06
1.77,-0.059
1.7725,-0.058
1.775,-0.057
1.7775,-0.056
1.78,-0.055
1.7825,-0.055
1.785,-0.054
1.7875,-0.054
1.79,-0.054
1.7925,-0.054
1.795,-0.054
1.7975,-0.054
1.8,-0.054
1.8025,-0.055
1.805,-0.055
1.8075,-0.056
1.81,-0.056
1.8125,-0.056
1.815,-0.055
1.8175,-0.054
1.82,-0.053
1.8225,-0.051
1.825,-0.049
1.8275,-0.047
1.83,-0.046
1.8325,-0.047
1.835,-0.048
1.8375,-0.051
1.84,-0.053
1.8425,-0.054
1.845,-0.053
1.8475,-0.05
1.85,-0.046
1.8525,-0.041
1.855,-0.037
1.8575,-0.033
1.86,-0.03
1.8625,-0.027
1.865,-0.025
1.8675,-0.023
1.87,-0.022
1.8725,-0.02
1.875,-0.019
1.8775,-0.019
1.88,-0.017
1.8825,-0.014
1.885,-0.01
1.8875,-0.003
1.89,0.005
1.8925,0.013
1.895,0.021
1.8975,0.026
1.9,0.028
1.9025,0.029
1.905,0.028
1.9075,0.028
1.91,0.029
1.9125,0.032
1.915,0.036
1.9175,0.04
1.92,0.044
1.9225,0.046
1.925,0.045
1.9275,0.043
1.93,0.039
1.9325,0.033
1.935,0.025
1.9375,0.015
1.94,0.004
1.9425,-0.009
1.945,-0.021
1.9475,-0.032
1.95,-0.042
1.9525,-0.05
1.955,-0.056
1.9575,-0.061
1.96,-0.065
1.9625,-0.068
1.965,-0.069
1.9675,-0.07
1.97,-0.069
1.9725,-0.068
1.975,-0.068
1.9775,-0.069
1.98,-0.073
1.9825,-0.077
1.985,-0.081
1.9875,-0.084
1.99,-0.084
1.9925,-0.083
1.995,-0.079
1.9975,-0.075
2,-0.073
2.0025,-0.072
2.005,-0.074
2.0075,-0.078
2.01,-0.083
2.0125,-0.087
2.015,-0.089
2.0175,-0.088
2.02,-0.084
2.0225,-0.078
2.025,-0.072
2.0275,-0.069
2.03,-0.069
2.0325,-0.075
2.035,-0.084
2.0375,-0.096
2.04,-0.109
2.0425,-0.12
2.045,-0.127
2.0475,-0.127
2.05,-0.12
2.0525,-0.102
2.055,-0.073
2.0575,-0.029
2.06,0.032
2.0625,0.11
2.065,0.203
2.0675,0.307
2.07,0.415
2.0725,0.518
2.075,0.607
2.0775,0.675
2.08,0.712
2.0825,0.712
2.085,0.671
2.0875,0.585
2.09,0.456
2.0925,0.294
2.095,0.113
2.0975,-0.068
2.1,-0.227
2.1025,-0.351
2.105,-0.431
2.1075,-0.467
2.11,-0.468
2.1125,-0.446
2.115,-0.413
2.1175,-0.378
2.12,-0.347
2.1225,-0.323
2.125,-0.306
2.1275,-0.292
2.13,-0.281
2.1325,-0.269
2.135,-0.254
2.1375,-0.234
2.14,-0.208
2.1425,-0.177
2.145,-0.145
2.1475,-0.115
2.15,-0.09
2.1525,-0.073
2.155,-0.065
2.1575,-0.065
2.16,-0.068
2.1625,-0.072
2.165,-0.073
2.1675,-0.07
2.17,-0.065
2.1725,-0.057
2.175,-0.05
2.1775,-0.045
2.18,-0.044
2.1825,-0.044
2.185,-0.046
2.1875,-0.047
2.19,-0.046
2.1925,-0.043
2.195,-0.038
2.1975,-0.033
2.2,-0.028
2.2025,-0.024
2.205,-0.022
2.2075,-0.022
2.21,-0.024
2.2125,-0.026
2.215,-0.027
2.2175,-0.027
2.22,-0.025
2.2225,-0.022
2.225,-0.02
2.2275,-0.017
2.23,-0.016
2.2325,-0.015
2.235,-0.015
2.2375,-0.016
2.24,-0.015
2.2425,-0.014
2.245,-0.011
2.2475,-0.008
2.25,-0.004
2.2525,0
2.255,0.002
2.2575,0.004
2.26,0.005
2.2625,0.006
2.265,0.006
2.2675,0.007
2.27,0.009
2.2725,0.01
2.275,0.012
2.2775,0.014
2.28,0.016
2.2825,0.018
2.285,0.02
2.2875,0.023
2.29,0.027
2.2925,0.031
2.295,0.035
2.2975,0.038
2.3,0.041
2.3025,0.043
2.305,0.044
2.3075,0.045
2.31,0.046
2.3125,0.048
2.315,0.051
2.3175,0.054
2.32,0.058
2.3225,0.064
2.325,0.07
2.3275,0.078
2.33,0.085
2.3325,0.092
2.335,0.098
2.3375,0.103
2.34,0.108
2.3425,0.111
2.345,0.115
2.3475,0.12
2.35,0.125
2.3525,0.131
2.355,0.138
2.3575,0.146
2.36,0.154
2.3625,0.163
2.365,0.171
2.3675,0.179
2.37,0.187
2.3725,0.195
2.375,0.204
2.3775,0.212
2.38,0.22
2.3825,0.227
2.385,0.234
2.3875,0.239
2.39,0.244
2.3925,0.248
2.395,0.252
2.3975,0.256
2.4,0.26
2.4025,0.264
2.405,0.268
2.4075,0.271
2.41,0.274
2.4125,0.276
2.415,0.277
2.4175,0.277
2.42,0.274
2.4225,0.268
2.425,0.261
2.4275,0.252
2.43,0.241
2.4325,0.23
2.435,0.218
2.4375,0.205
2.44,0.193
2.4425,0.179
2.445,0.165
2.4475,0.149
2.45,0.133
2.4525,0.116
2.455,0.1
2.4575,0.085
2.46,0.072
2.4625,0.06
2.465,0.049
2.4675,0.039
2.47,0.03
2.4725,0.021
2.475,0.012
2.4775,0.004
2.48,-0.004
2.4825,-0.012
2.485,-0.019
2.4875,-0.025
2.49,-0.03
2.4925,-0.034
2.495,-0.038
2.4975,-0.041
2.5,-0.044
2.5025,-0.046
2.505,-0.048
2.5075,-0.05
2.51,-0.052
2.5125,-0.054
2.515,-0.055
2.5175,-0.056
2.52,-0.056
2.5225,-0.056
2.525,-0.055
2.5275,-0.055
2.53,-0.055
2.5325,-0.056
2.535,-0.057
2.5375,-0.058
2.54,-0.058
2.5425,-0.059
2.545,-0.06
2.5475,-0.061
2.55,-0.063
2.5525,-0.065
2.555,-0.066
2.5575,-0.067
2.56,-0.067
2.5625,-0.066
2.565,-0.065
2.5675,-0.064
2.57,-0.063
2.5725,-0.062
2.575,-0.062
2.5775,-0.061
2.58,-0.061
2.5825,-0.062
2.585,-0.063
2.5875,-0.064
2.59,-0.066
2.5925,-0.068
2.595,-0.068
2.5975,-0.068
2.6,-0.066
2.6025,-0.064
2.605,-0.062
2.6075,-0.061
2.61,-0.059
2.6125,-0.058
2.615,-0.058
2.6175,-0.057
2.62,-0.057
2.6225,-0.057
2.625,-0.056
2.6275,-0.056
2.63,-0.056
2.6325,-0.055
2.635,-0.054
2.6375,-0.053
2.64,-0.053
2.6425,-0.053
2.645,-0.053
2.6475,-0.053
2.65,-0.053
2.6525,-0.052
2.655,-0.05
2.6575,-0.048
2.66,-0.047
2.6625,-0.046
2.665,-0.046
2.6675,-0.047
2.67,-0.048
2.6725,-0.049
2.675,-0.049
2.6775,-0.049
2.68,-0.049
2.6825,-0.049
2.685,-0.049
2.6875,-0.049
2.69,-0.049
2.6925,-0.049
2.695,-0.049
2.6975,-0.05
2.7,-0.051
2.7025,-0.053
2.705,-0.054
2.7075,-0.054
2.71,-0.054
2.7125,-0.053
2.715,-0.053
2.7175,-0.053
2.72,-0.053
2.7225,-0.054
2.725,-0.055
2.7275,-0.057
2.73,-0.058
2.7325,-0.058
2.735,-0.058
2.7375,-0.057
2.74,-0.055
2.7425,-0.054
2.745,-0.052
2.7475,-0.05
2.75,-0.049
2.7525,-0.047
2.755,-0.047
2.7575,-0.046
2.76,-0.046
2.7625,-0.045
2.765,-0.043
2.7675,-0.041
2.77,-0.038
2.7725,-0.035
2.775,-0.034
2.7775,-0.033
2.78,-0.033
2.7825,-0.034
2.785,-0.035
2.7875,-0.034
2.79,-0.032
2.7925,-0.028
2.795,-0.022
2.7975,-0.016
2.8,-0.01
2.8025,-0.004
2.805,0.001
2.8075,0.004
2.81,0.007
2.8125,0.009
2.815,0.012
2.8175,0.015
2.82,0.02
2.8225,0.026
2.825,0.032
2.8275,0.038
2.83,0.041
2.8325,0.042
2.835,0.039
2.8375,0.033
2.84,0.024
2.8425,0.014
2.845,0.003
2.8475,-0.008
2.85,-0.017
2.8525,-0.026
2.855,-0.032
2.8575,-0.038
2.86,-0.044
2.8625,-0.049
2.865,-0.055
2.8675,-0.061
2.87,-0.067
2.8725,-0.07
2.875,-0.072
2.8775,-0.073
2.88,-0.073
2.8825,-0.072
2.885,-0.072
2.8875,-0.073
2.89,-0.074
2.8925,-0.075
2.895,-0.075
2.8975,-0.075
2.9,-0.074
2.9025,-0.075
2.905,-0.076
2.9075,-0.078
2.91,-0.081
2.9125,-0.085
2.915,-0.087
2.9175,-0.087
2.92,-0.086
2.9225,-0.082
2.925,-0.078
2.9275,-0.073
2.93,-0.069
2.9325,-0.068
2.935,-0.071
2.9375,-0.078
2.94,-0.087
2.9425,-0.097
2.945,-0.108
2.9475,-0.116
2.95,-0.12
2.9525,-0.118
2.955,-0.11
2.9575,-0.092
2.96,-0.063
2.9625,-0.019
2.965,0.042
2.9675,0.12
2.97,0.215
2.9725,0.321
2.975,0.43
2.9775,0.535
2.98,0.624
2.9825,0.689
2.985,0.723
2.9875,0.72
2.99,0.674
2.9925,0.584
2.995,0.453
2.9975,0.289
3,0.11
3.0025,-0.065
3.005,-0.218
3.0075,-0.333
3.01,-0.404
3.0125,-0.435
3.015,-0.433
3.0175,-0.412
3.02,-0.382
3.0225,-0.352
3.025,-0.326
3.0275,-0.306
3.03,-0.291
3.0325,-0.279
3.035,-0.268
3.0375,-0.255
3.04,-0.238
3.0425,-0.216
3.045,-0.188
3.0475,-0.156
3.05,-0.123
3.0525,-0.094
3.055,-0.071
3.0575,-0.058
3.06,-0.054
3.0625,-0.056
3.065,-0.062
3.0675,-0.067
3.07,-0.068
3.0725,-0.065
3.075,-0.059
3.0775,-0.052
3.08,-0.046
3.0825,-0.042
3.085,-0.04
3.0875,-0.041
3.09,-0.042
3.0925,-0.042
3.095,-0.041
3.0975,-0.037
3.1,-0.033
3.1025,-0.027
3.105,-0.022
3.1075,-0.017
3.11,-0.015
3.1125,-0.015
3.115,-0.016
3.1175,-0.019
3.12,-0.02
3.1225,-0.02
3.125,-0.018
3.1275,-0.015
3.13,-0.012
3.1325,-0.009
3.135,-0.007
3.1375,-0.007
3.14,-0.008
3.1425,-0.009
3.145,-0.009
3.1475,-0.008
3.15,-0.006
3.1525,-0.004
3.155,-0.001
3.1575,0
3.16,0.001
3.1625,0.002
3.165,0.002
3.1675,0.002
3.17,0.002
3.1725,0.003
3.175,0.004
3.1775,0.007
3.18,0.009
3.1825,0.013
3.185,0.017
3.1875,0.021
3.19,0.025
3.1925,0.029
3.195,0.032
3.1975,0.035
3.2,0.037
3.2025,0.039
3.205,0.041
3.2075,0.043
3.21,0.046
3.2125,0.048
3.215,0.051
3.2175,0.053
3.22,0.056
3.2225,0.059
3.225,0.063
3.2275,0.068
3.23,0.074
3.2325,0.081
3.235,0.088
3.2375,0.095
3.24,0.1
3.2425,0.105
3.245,0.11
3.2475,0.115
3.25,0.12
3.2525,0.126
3.255,0.132
3.2575,0.138
3.26,0.144
3.2625,0.15
3.265,0.156
3.2675,0.162
3.27,0.17
3.2725,0.178
3.275,0.186
3.2775,0.194
3.28,0.201
3.2825,0.208
3.285,0.215
3.2875,0.221
3.29,0.228
3.2925,0.235
3.295,0.242
3.2975,0.249
3.3,0.254
3.3025,0.259
3.305,0.263
3.3075,0.266
3.31,0.268
3.3125,0.27
3.315,0.271
3.3175,0.271
3.32,0.269
3.3225,0.267
3.325,0.262
3.3275,0.255
3.33,0.246
3.3325,0.236
3.335,0.225
3.3375,0.213
3.34,0.201
3.3425,0.188
3.345,0.174
3.3475,0.16
3.35,0.144
3.3525,0.127
3.355,0.11
3.3575,0.093
3.36,0.078
3.3625,0.066
3.365,0.055
3.3675,0.046
3.37,0.037
3.3725,0.028
3.375,0.019
3.3775,0.009
3.38,0.001
3.3825,-0.007
3.385,-0.013
3.3875,-0.018
3.39,-0.023
3.3925,-0.029
3.395,-0.034
3.3975,-0.039
3.4,-0.043
3.4025,-0.045
3.405,-0.046
3.4075,-0.046
3.41,-0.047
3.4125,-0.049
3.415,-0.052
3.4175,-0.055
3.42,-0.058
3.4225,-0.059
3.425,-0.059
3.4275,-0.058
3.43,-0.057
3.4325,-0.056
3.435,-0.056
3.4375,-0.057
3.44,-0.058
3.4425,-0.06
3.445,-0.062
3.4475,-0.064
3.45,-0.066
3.4525,-0.068
3.455,-0.068
3.4575,-0.069
3.46,-0.068
3.4625,-0.067
3.465,-0.066
3.4675,-0.064
3.47,-0.062
3.4725,-0.06
3.475,-0.059
3.4775,-0.058
3.48,-0.059
3.4825,-0.06
3.485,-0.061
3.4875,-0.062
3.49,-0.063
3.4925,-0.063
3.495,-0.064
3.4975,-0.065
3.5,-0.066
3.5025,-0.066
3.505,-0.067
3.5075,-0.066
3.51,-0.065
3.5125,-0.064
3.515,-0.062
3.5175,-0.059
3.52,-0.057
3.5225,-0.056
3.525,-0.055
3.5275,-0.055
3.53,-0.055
3.5325,-0.056
3.535,-0.058
3.5375,-0.059
3.54,-0.059
3.5425,-0.06
3.545,-0.06
3.5475,-0.06
3.55,-0.06
3.5525,-0.06
3.555,-0.06
3.5575,-0.059
3.56,-0.057
3.5625,-0.055
3.565,-0.053
3.5675,-0.051
3.57,-0.05
3.5725,-0.05
3.575,-0.051
3.5775,-0.052
3.58,-0.052
3.5825,-0.054
3.585,-0.056
3.5875,-0.058
3.59,-0.06
3.5925,-0.062
3.595,-0.063
3.5975,-0.061
3.6,-0.059
3.6025,-0.057
3.605,-0.054
3.6075,-0.053
3.61,-0.053
3.6125,-0.053
3.615,-0.055
3.6175,-0.056
3.62,-0.057
3.6225,-0.057
3.625,-0.057
3.6275,-0.057
3.63,-0.057
3.6325,-0.056
3.635,-0.057
3.6375,-0.057
3.64,-0.058
3.6425,-0.06
3.645,-0.062
3.6475,-0.063
3.65,-0.064
3.6525,-0.063
3.655,-0.062
3.6575,-0.061
3.66,-0.059
3.6625,-0.057
3.665,-0.055
3.6675,-0.054
3.67,-0.054
3.6725,-0.053
3.675,-0.054
3.6775,-0.055
3.68,-0.056
3.6825,-0.058
3.685,-0.06
3.6875,-0.061
3.69,-0.061
3.6925,-0.06
3.695,-0.059
3.6975,-0.057
3.7,-0.055
3.7025,-0.055
3.705,-0.055
3.7075,-0.057
3.71,-0.059
3.7125,-0.06
3.715,-0.06
3.7175,-0.059
3.72,-0.056
3.7225,-0.051
3.725,-0.046
3.7275,-0.041
3.73,-0.036
3.7325,-0.031
3.735,-0.028
3.7375,-0.025
3.74,-0.023
3.7425,-0.023
3.745,-0.023
3.7475,-0.024
3.75,-0.024
3.7525,-0.023
3.755,-0.02
3.7575,-0.014
3.76,-0.008
3.7625,0
3.765,0.007
3.7675,0.013
3.77,0.016
3.7725,0.018
3.775,0.018
3.7775,0.017
3.78,0.018
3.7825,0.019
3.785,0.023
3.7875,0.028
3.79,0.033
3.7925,0.038
3.795,0.041
3.7975,0.042
3.8,0.04
3.8025,0.035
3.805,0.028
3.8075,0.019
3.81,0.009
3.8125,-0.001
3.815,-0.01
3.8175,-0.02
3.82,-0.029
3.8225,-0.039
3.825,-0.048
3.8275,-0.057
3.83,-0.065
3.8325,-0.07
3.835,-0.073
3.8375,-0.074
3.84,-0.072
3.8425,-0.07
3.845,-0.068
3.8475,-0.068
3.85,-0.07
3.8525,-0.074
3.855,-0.078
3.8575,-0.081
3.86,-0.083
3.8625,-0.082
3.865,-0.08
3.8675,-0.077
3.87,-0.075
3.8725,-0.073
3.875,-0.073
3.8775,-0.075
3.88,-0.078
3.8825,-0.082
3.885,-0.084
3.8875,-0.084
3.89,-0.083
3.8925,-0.081
3.895,-0.078
3.8975,-0.076
3.9,-0.076
3.9025,-0.08
3.905,-0.086
3.9075,-0.095
3.91,-0.105
3.9125,-0.115
3.915,-0.121
3.9175,-0.122
3.92,-0.115
3.9225,-0.098
3.925,-0.068
3.9275,-0.023
3.93,0.039
3.9325,0.118
3.935,0.214
3.9375,0.319
3.94,0.428
3.9425,0.53
3.945,0.618
3.9475,0.682
3.95,0.717
3.9525,0.717
3.955,0.677
3.9575,0.594
3.96,0.468
3.9625,0.309
3.965,0.129
3.9675,-0.051
3.97,-0.211
3.9725,-0.337
3.975,-0.419
3.9775,-0.459
3.98,-0.465
3.9825,-0.448
3.985,-0.419
3.9875,-0.387
3.99,-0.356
3.9925,-0.329
3.995,-0.305
3.9975,-0.286
4,-0.269
4.0025,-0.253
4.005,-0.235
4.0075,-0.214
4.01,-0.188
4.0125,-0.158
4.015,-0.127
4.0175,-0.099
4.02,-0.077
4.0225,-0.063
4.025,-0.059
4.0275,-0.061
4.03,-0.065
4.0325,-0.07
4.035,-0.071
4.0375,-0.068
4.04,-0.061
4.0425,-0.053
4.045,-0.046
4.0475,-0.041
4.05,-0.039
4.0525,-0.039
4.055,-0.041
4.0575,-0.043
4.06,-0.043
4.0625,-0.042
4.065,-0.038
4.0675,-0.033
4.07,-0.028
4.0725,-0.024
4.075,-0.022
4.0775,-0.022
4.08,-0.023
4.0825,-0.025
4.085,-0.026
4.0875,-0.026
4.09,-0.024
4.0925,-0.02
4.095,-0.016
4.0975,-0.013
4.1,-0.01
4.1025,-0.01
4.105,-0.011
4.1075,-0.013
4.11,-0.014
4.1125,-0.015
4.115,-0.015
4.1175,-0.012
4.12,-0.009
4.1225,-0.005
4.125,-0.002
4.1275,0
4.13,0
4.1325,0
4.135,0
4.1375,0
4.14,0.001
4.1425,0.003
4.145,0.005
4.1475,0.009
4.15,0.012
4.1525,0.014
4.155,0.017
4.1575,0.019
4.16,0.021
4.1625,0.023
4.165,0.025
4.1675,0.028
4.17,0.03
4.1725,0.031
4.175,0.033
4.1775,0.035
4.18,0.037
4.1825,0.041
4.185,0.046
4.1875,0.052
4.19,0.058
4.1925,0.064
4.195,0.069
4.1975,0.073
4.2,0.077
4.2025,0.081
4.205,0.085
4.2075,0.091
4.21,0.098
4.2125,0.105
4.215,0.113
4.2175,0.12
4.22,0.126
4.2225,0.131
4.225,0.136
4.2275,0.142
4.23,0.148
4.2325,0.155
4.235,0.163
4.2375,0.171
4.24,0.179
4.2425,0.187
4.245,0.196
4.2475,0.205
4.25,0.213
4.2525,0.221
4.255,0.229
4.2575,0.235
4.26,0.241
4.2625,0.245
4.265,0.249
4.2675,0.252
4.27,0.256
4.2725,0.259
4.275,0.263
4.2775,0.267
4.28,0.27
4.2825,0.273
4.285,0.274
4.2875,0.273
4.29,0.269
4.2925,0.264
4.295,0.256
4.2975,0.246
4.3,0.235
4.3025,0.224
4.305,0.212
4.3075,0.199
4.31,0.185
4.3125,0.17
4.315,0.155
4.3175,0.14
4.32,0.125
4.3225,0.111
4.325,0.098
4.3275,0.086
4.33,0.074
4.3325,0.062
4.335,0.049
4.3375,0.037
4.34,0.026
4.3425,0.017
4.345,0.009
4.3475,0.003
4.35,-0.003
4.3525,-0.009
4.355,-0.014
4.3575,-0.019
4.36,-0.024
4.3625,-0.028
4.365,-0.031
4.3675,-0.033
4.37,-0.036
4.3725,-0.038
4.375,-0.041
4.3775,-0.043
4.38,-0.046
4.3825,-0.048
4.385,-0.05
4.3875,-0.052
4.39,-0.053
4.3925,-0.053
4.395,-0.052
4.3975,-0.052
4.4,-0.051
4.4025,-0.051
4.405,-0.051
4.4075,-0.051
4.41,-0.051
4.4125,-0.051
4.415,-0.05
4.4175,-0.049
4.42,-0.048
4.4225,-0.048
4.425,-0.048
4.4275,-0.049
4.43,-0.05
4.4325,-0.051
4.435,-0.052
4.4375,-0.052
4.44,-0.053
4.4425,-0.053
4.445,-0.054
4.4475,-0.054
4.45,-0.055
4.4525,-0.055
4.455,-0.055
4.4575,-0.054
4.46,-0.053
4.4625,-0.052
4.465,-0.051
4.4675,-0.05
4.47,-0.049
4.4725,-0.05
4.475,-0.051
4.4775,-0.052
4.48,-0.054
4.4825,-0.054
4.485,-0.055
4.4875,-0.054
4.49,-0.054
4.4925,-0.052
4.495,-0.051
4.4975,-0.049
4.5,-0.047
4.5025,-0.045
4.505,-0.045
4.5075,-0.045
4.51,-0.045
4.5125,-0.046
4.515,-0.047
4.5175,-0.048
4.52,-0.047
4.5225,-0.047
4.525,-0.045
4.5275,-0.044
4.53,-0.043
4.5325,-0.042
4.535,-0.042
4.5375,-0.043
4.54,-0.045
4.5425,-0.046
4.545,-0.048
4.5475,-0.048
4.55,-0.048
4.5525,-0.047
4.555,-0.045
4.5575,-0.044
4.56,-0.043
4.5625,-0.044
4.565,-0.047
4.5675,-0.05
4.57,-0.054
4.5725,-0.057
4.575,-0.059
4.5775,-0.059
4.58,-0.058
4.5825,-0.056
4.585,-0.053
4.5875,-0.051
4.59,-0.049
4.5925,-0.048
4.595,-0.048
4.5975,-0.048
4.6,-0.048
4.6025,-0.048
4.605,-0.047
4.6075,-0.046
4.61,-0.045
4.6125,-0.043
4.615,-0.042
4.6175,-0.041
4.62,-0.04
4.6225,-0.041
4.625,-0.041
4.6275,-0.043
4.63,-0.045
4.6325,-0.047
4.635,-0.05
4.6375,-0.051
4.64,-0.052
4.6425,-0.052
4.645,-0.051
4.6475,-0.05
4.65,-0.049
4.6525,-0.049
4.655,-0.05
4.6575,-0.051
4.66,-0.053
4.6625,-0.055
4.665,-0.056
4.6675,-0.056
4.67,-0.055
4.6725,-0.054
4.675,-0.053
4.6775,-0.053
4.68,-0.053
4.6825,-0.054
4.685,-0.055
4.6875,-0.056
4.69,-0.054
4.6925,-0.052
4.695,-0.049
4.6975,-0.045
4.7,-0.041
4.7025,-0.037
4.705,-0.033
4.7075,-0.029
4.71,-0.025
4.7125,-0.022
4.715,-0.019
4.7175,-0.017
4.72,-0.015
4.7225,-0.013
4.725,-0.011
4.7275,-0.009
4.73,-0.006
4.7325,-0.002
4.735,0.003
4.7375,0.009
4.74,0.015
4.7425,0.021
4.745,0.026
4.7475,0.03
4.75,0.032
4.7525,0.032
4.755,0.033
4.7575,0.034
4.76,0.035
4.7625,0.038
4.765,0.04
4.7675,0.04
4.77,0.039
4.7725,0.036
4.775,0.032
4.7775,0.027
4.78,0.023
4.7825,0.018
4.785,0.013
4.7875,0.006
4.79,-0.003
4.7925,-0.014
4.795,-0.027
4.7975,-0.041
4.8,-0.053
4.8025,-0.063
4.805,-0.07
4.8075,-0.073
4.81,-0.072
4.8125,-0.07
4.815,-0.066
4.8175,-0.062
4.82,-0.06
4.8225,-0.061
4.825,-0.064
4.8275,-0.067
4.83,-0.072
4.8325,-0.075
4.835,-0.076
4.8375,-0.075
4.84,-0.073
4.8425,-0.071
4.845,-0.069
4.8475,-0.07
4.85,-0.072
4.8525,-0.076
4.855,-0.08
4.8575,-0.082
4.86,-0.082
4.8625,-0.081
4.865,-0.077
4.8675,-0.074
4.87,-0.071
4.8725,-0.071
4.875,-0.075
4.8775,-0.082
4.88,-0.092
4.8825,-0.104
4.885,-0.115
4.8875,-0.123
4.89,-0.124
4.8925,-0.117
4.895,-0.099
4.8975,-0.068
4.9,-0.021
4.9025,0.042
4.905,0.124
4.9075,0.221
4.91,0.328
4.9125,0.439
4.915,0.543
4.9175,0.632
4.92,0.698
4.9225,0.734
4.925,0.735
4.9275,0.696
4.93,0.612
4.9325,0.486
4.935,0.325
4.9375,0.142
4.94,-0.042
4.9425,-0.207
4.945,-0.337
4.9475,-0.423
4.95,-0.466
4.9525,-0.473
4.955,-0.456
4.9575,-0.426
4.96,-0.393
4.9625,-0.361
4.965,-0.332
4.9675,-0.309
4.97,-0.289
4.9725,-0.271
4.975,-0.255
4.9775,-0.236
4.98,-0.213
4.9825,-0.186
4.985,-0.155
4.9875,-0.123
4.99,-0.094
4.9925,-0.072
4.995,-0.059
4.9975,-0.054
5,-0.056
5.0025,-0.061
5.005,-0.065
5.0075,-0.066
5.01,-0.063
5.0125,-0.057
5.015,-0.049
5.0175,-0.042
5.02,-0.037
5.0225,-0.035
5.025,-0.036
5.0275,-0.039
5.03,-0.041
5.0325,-0.042
5.035,-0.039
5.0375,-0.035
5.04,-0.028
5.0425,-0.022
5.045,-0.018
5.0475,-0.016
5.05,-0.018
5.0525,-0.021
5.055,-0.025
5.0575,-0.028
5.06,-0.029
5.0625,-0.027
5.065,-0.024
5.0675,-0.02
5.07,-0.017
5.0725,-0.013
5.075,-0.011
5.0775,-0.009
5.08,-0.008
5.0825,-0.007
5.085,-0.006
5.0875,-0.005
5.09,-0.003
5.0925,-0.001
5.095,0.003
5.0975,0.006
5.1,0.008
5.1025,0.009
5.105,0.01
5.1075,0.011
5.11,0.011
5.1125,0.013
5.115,0.015
5.1175,0.018
5.12,0.021
5.1225,0.024
5.125,0.026
5.1275,0.027
5.13,0.028
5.1325,0.029
5.135,0.031
5.1375,0.033
5.14,0.037
5.1425,0.041
5.145,0.046
5.1475,0.05
5.15,0.054
5.1525,0.056
5.155,0.057
5.1575,0.058
5.16,0.059
5.1625,0.061
5.165,0.065
5.1675,0.07
5.17,0.075
5.1725,0.081
5.175,0.087
5.1775,0.092
5.18,0.099
5.1825,0.105
5.185,0.111
5.1875,0.118
5.19,0.125
5.1925,0.131
5.195,0.137
5.1975,0.144
5.2,0.15
5.2025,0.156
5.205,0.163
5.2075,0.169
5.21,0.176
5.2125,0.184
5.215,0.191
5.2175,0.198
5.22,0.205
5.2225,0.212
5.225,0.219
5.2275,0.225
5.23,0.232
5.2325,0.239
5.235,0.245
5.2375,0.25
5.24,0.255
5.2425,0.259
5.245,0.263
5.2475,0.267
5.25,0.272
5.2525,0.276
5.255,0.278
5.2575,0.279
5.26,0.277
5.2625,0.272
5.265,0.264
5.2675,0.254
5.27,0.243
5.2725,0.232
5.275,0.221
5.2775,0.21
5.28,0.199
5.2825,0.188
5.285,0.177
5.2875,0.164
5.29,0.151
5.2925,0.136
5.295,0.121
5.2975,0.105
5.3,0.091
5.3025,0.076
5.305,0.063
5.3075,0.051
5.31,0.04
5.3125,0.03
5.315,0.02
5.3175,0.011
5.32,0.003
5.3225,-0.005
5.325,-0.012
5.3275,-0.019
5.33,-0.026
5.3325,-0.031
5.335,-0.036
5.3375,-0.04
5.34,-0.043
5.3425,-0.045
5.345,-0.046
5.3475,-0.046
5.35,-0.046
5.3525,-0.047
5.355,-0.048
5.3575,-0.05
5.36,-0.052
5.3625,-0.054
5.365,-0.056
5.3675,-0.058
5.37,-0.059
5.3725,-0.06
5.375,-0.062
5.3775,-0.063
5.38,-0.064
5.3825,-0.065
5.385,-0.065
5.3875,-0.064
5.39,-0.062
5.3925,-0.061
5.395,-0.06
5.3975,-0.059
5.4,-0.059
5.4025,-0.059
5.405,-0.06
5.4075,-0.061
5.41,-0.062
5.4125,-0.063
5.415,-0.063
5.4175,-0.063
5.42,-0.062
5.4225,-0.062
5.425,-0.061
5.4275,-0.061
5.43,-0.061
5.4325,-0.06
5.435,-0.059
5.4375,-0.057
5.44,-0.054
5.4425,-0.053
5.445,-0.052
5.4475,-0.052
5.45,-0.053
5.4525,-0.054
5.455,-0.055
5.4575,-0.055
5.46,-0.055
5.4625,-0.054
5.465,-0.054
5.4675,-0.053
5.47,-0.053
5.4725,-0.051
5.475,-0.049
5.4775,-0.047
5.48,-0.045
5.4825,-0.045
5.485,-0.047
5.4875,-0.05
5.49,-0.053
5.4925,-0.056
5.495,-0.058
5.4975,-0.058
5.5,-0.057
5.5025,-0.056
5.505,-0.056
5.5075,-0.055
5.51,-0.055
5.5125,-0.054
5.515,-0.054
5.5175,-0.054
5.52,-0.054
5.5225,-0.055
5.525,-0.056
5.5275,-0.056
5.53,-0.056
5.5325,-0.056
5.535,-0.055
5.5375,-0.054
5.54,-0.053
5.5425,-0.052
5.545,-0.051
5.5475,-0.051
5.55,-0.052
5.5525,-0.053
5.555,-0.054
5.5575,-0.056
5.56,-0.057
5.5625,-0.057
5.565,-0.057
5.5675,-0.055
5.57,-0.055
5.5725,-0.054
5.575,-0.055
5.5775,-0.057
5.58,-0.059
5.5825,-0.06
5.585,-0.061
5.5875,-0.06
5.59,-0.058
5.5925,-0.056
5.595,-0.054
5.5975,-0.052
5.6,-0.051
5.6025,-0.049
5.605,-0.048
5.6075,-0.047
5.61,-0.046
5.6125,-0.045
5.615,-0.044
5.6175,-0.044
5.62,-0.044
5.6225,-0.042
5.625,-0.04
5.6275,-0.036
5.63,-0.032
5.6325,-0.029
5.635,-0.027
5.6375,-0.026
5.64,-0.027
5.6425,-0.027
5.645,-0.028
5.6475,-0.027
5.65,-0.025
5.6525,-0.02
5.655,-0.015
5.6575,-0.008
5.66,-0.002
5.6625,0.003
5.665,0.008
5.6675,0.012
5.67,0.015
5.6725,0.018
5.675,0.02
5.6775,0.024
5.68,0.028
5.6825,0.033
5.685,0.039
5.6875,0.044
5.69,0.046
5.6925,0.046
5.695,0.041
5.6975,0.032
5.7,0.021
5.7025,0.009
5.705,-0.004
5.7075,-0.015
5.71,-0.025
5.7125,-0.035
5.715,-0.044
5.7175,-0.052
5.72,-0.059
5.7225,-0.064
5.725,-0.067
5.7275,-0.069
5.73,-0.071
5.7325,-0.073
5.735,-0.076
5.7375,-0.079
5.74,-0.082
5.7425,-0.085
5.745,-0.086
5.7475,-0.087
5.75,-0.086
5.7525,-0.085
5.755,-0.082
5.7575,-0.08
5.76,-0.078
5.7625,-0.078
5.765,-0.08
5.7675,-0.083
5.77,-0.087
5.7725,-0.09
5.775,-0.091
5.7775,-0.09
5.78,-0.085
5.7825,-0.079
5.785,-0.074
5.7875,-0.071
5.79,-0.072
5.7925,-0.076
5.795,-0.083
5.7975,-0.092
5.8,-0.102
5.8025,-0.11
5.805,-0.117
5.8075,-0.121
5.81,-0.121
5.8125,-0.114
5.815,-0.097
5.8175,-0.066
5.82,-0.019
5.8225,0.047
5.825,0.132
5.8275,0.233
5.83,0.343
5.8325,0.453
5.835,0.553
5.8375,0.635
5.84,0.689
5.8425,0.71
5.845,0.691
5.8475,0.629
5.85,0.524
5.8525,0.38
5.855,0.208
5.8575,0.026
5.86,-0.147
5.8625,-0.293
5.865,-0.398
5.8675,-0.458
5.87,-0.478
5.8725,-0.468
5.875,-0.441
5.8775,-0.406
5.88,-0.371
5.8825,-0.34
5.885,-0.315
5.8875,-0.296
5.89,-0.282
5.8925,-0.272
5.895,-0.263
5.8975,-0.253
5.9,-0.237
5.9025,-0.214
5.905,-0.185
5.9075,-0.152
5.91,-0.121
5.9125,-0.095
5.915,-0.078
5.9175,-0.069
5.92,-0.067
5.9225,-0.069
5.925,-0.071
5.9275,-0.071
5.93,-0.069
5.9325,-0.066
5.935,-0.061
5.9375,-0.056
5.94,-0.051
5.9425,-0.047
5.945,-0.044
5.9475,-0.043
5.95,-0.043
5.9525,-0.044
5.955,-0.044
5.9575,-0.045
5.96,-0.044
5.9625,-0.041
5.965,-0.038
5.9675,-0.035
5.97,-0.032
5.9725,-0.029
5.975,-0.027
5.9775,-0.024
5.98,-0.021
5.9825,-0.018
5.985,-0.015
5.9875,-0.013
5.99,-0.012
5.9925,-0.013
5.995,-0.014
5.9975,-0.015
6,-0.017
6.0025,-0.017
6.005,-0.016
6.0075,-0.012
6.01,-0.007
6.0125,-0.001
6.015,0.003
6.0175,0.006
6.02,0.005
6.0225,0.002
6.025,-0.001
6.0275,-0.004
6.03,-0.004
6.0325,-0.002
6.035,0.002
6.0375,0.007
6.04,0.012
6.0425,0.015
6.045,0.018
6.0475,0.021
6.05,0.023
6.0525,0.026
6.055,0.029
6.0575,0.032
6.06,0.034
6.0625,0.036
6.065,0.037
6.0675,0.038
6.07,0.04
6.0725,0.043
6.075,0.048
6.0775,0.053
6.08,0.059
6.0825,0.065
6.085,0.07
6.0875,0.075
6.09,0.079
6.0925,0.083
6.095,0.086
6.0975,0.09
6.1,0.095
6.1025,0.101
6.105,0.108
6.1075,0.115
6.11,0.123
6.1125,0.131
6.115,0.14
6.1175,0.148
6.12,0.156
6.1225,0.165
6.125,0.173
6.1275,0.18
6.13,0.186
6.1325,0.191
6.135,0.196
6.1375,0.201
6.14,0.208
6.1425,0.217
6.145,0.227
6.1475,0.238
6.15,0.248
6.1525,0.256
6.155,0.263
6.1575,0.268
6.16,0.271
6.1625,0.274
6.165,0.277
6.1675,0.279
6.17,0.28
6.1725,0.281
6.175,0.282
6.1775,0.281
6.18,0.279
6.1825,0.274
6.185,0.267
6.1875,0.258
6.19,0.247
6.1925,0.235
6.195,0.223
6.1975,0.21
6.2,0.197
6.2025,0.184
6.205,0.17
6.2075,0.157
6.21,0.145
6.2125,0.133
6.215,0.121
6.2175,0.107
6.22,0.091
6.2225,0.073
6.225,0.055
6.2275,0.036
6.23,0.02
6.2325,0.007
6.235,-0.003
6.2375,-0.01
6.24,-0.015
6.2425,-0.02
6.245,-0.024
6.2475,-0.028
6.25,-0.032
6.2525,-0.036
6.255,-0.04
6.2575,-0.044
6.26,-0.049
6.2625,-0.053
6.265,-0.056
6.2675,-0.057
6.27,-0.056
6.2725,-0.053
6.275,-0.05
6.2775,-0.049
6.28,-0.049
6.2825,-0.052
6.285,-0.057
6.2875,-0.061
6.29,-0.065
6.2925,-0.068
6.295,-0.07
6.2975,-0.072
6.3,-0.074
6.3025,-0.073
6.305,-0.071
6.3075,-0.066
6.31,-0.061
6.3125,-0.057
6.315,-0.055
6.3175,-0.057
6.32,-0.061
6.3225,-0.066
6.325,-0.07
6.3275,-0.071
6.33,-0.072
6.3325,-0.071
6.335,-0.069
6.3375,-0.068
6.34,-0.065
6.3425,-0.061
6.345,-0.057
6.3475,-0.052
6.35,-0.05
6.3525,-0.05
6.355,-0.053
6.3575,-0.058
6.36,-0.063
6.3625,-0.066
6.365,-0.067
6.3675,-0.066
6.37,-0.063
6.3725,-0.059
6.375,-0.056
6.3775,-0.054
6.38,-0.053
6.3825,-0.053
6.385,-0.054
6.3875,-0.055
6.39,-0.056
6.3925,-0.055
6.395,-0.054
6.3975,-0.053
6.4,-0.052
6.4025,-0.047
6.405,-0.047
6.4075,-0.049
6.41,-0.051
6.4125,-0.052
6.415,-0.05
6.4175,-0.047
6.42,-0.042
6.4225,-0.037
6.425,-0.032
6.4275,-0.03
6.43,-0.031
6.4325,-0.033
6.435,-0.035
6.4375,-0.035
6.44,-0.033
6.4425,-0.03
6.445,-0.025
6.4475,-0.021
6.45,-0.018
6.4525,-0.018
6.455,-0.019
6.4575,-0.022
6.46,-0.024
6.4625,-0.025
6.465,-0.025
6.4675,-0.022
6.47,-0.019
6.4725,-0.014
6.475,-0.01
6.4775,-0.006
6.48,-0.003
6.4825,-0.001
6.485,0.002
6.4875,0.003
6.49,0.005
6.4925,0.006
6.495,0.007
6.4975,0.008
6.5,0.009
6.5025,0.009
6.505,0.011
6.5075,0.012
6.51,0.014
6.5125,0.016
6.515,0.018
6.5175,0.02
6.52,0.022
6.5225,0.024
6.525,0.027
6.5275,0.03
6.53,0.033
6.5325,0.036
6.535,0.039
6.5375,0.042
6.54,0.044
6.5425,0.048
6.545,0.052
6.5475,0.057
6.55,0.063
6.5525,0.07
6.555,0.078
6.5575,0.084
6.56,0.09
6.5625,0.096
6.565,0.101
6.5675,0.106
6.57,0.111
6.5725,0.117
6.575,0.123
6.5775,0.131
6.58,0.139
6.5825,0.147
6.585,0.156
6.5875,0.165
6.59,0.173
6.5925,0.181
6.595,0.189
6.5975,0.197
6.6,0.204
6.6025,0.211
6.605,0.218
6.6075,0.225
6.61,0.231
6.6125,0.237
6.615,0.242
6.6175,0.248
6.62,0.253
6.6225,0.257
6.625,0.26
6.6275,0.261
6.63,0.26
6.6325,0.258
6.635,0.256
6.6375,0.253
6.64,0.25
6.6425,0.248
6.645,0.244
6.6475,0.238
6.65,0.23
6.6525,0.22
6.655,0.208
6.6575,0.194
6.66,0.18
6.6625,0.166
6.665,0.152
6.6675,0.138
6.67,0.123
6.6725,0.108
6.675,0.094
6.6775,0.081
6.68,0.068
6.6825,0.057
6.685,0.046
6.6875,0.036
6.69,0.027
6.6925,0.017
6.695,0.009
6.6975,0.001
6.7,-0.006
6.7025,-0.012
6.705,-0.017
6.7075,-0.02
6.71,-0.024
6.7125,-0.027
6.715,-0.031
6.7175,-0.034
6.72,-0.037
6.7225,-0.039
6.725,-0.041
6.7275,-0.044
6.73,-0.046
6.7325,-0.048
6.735,-0.051
6.7375,-0.053
6.74,-0.055
6.7425,-0.055
6.745,-0.055
6.7475,-0.055
6.75,-0.054
6.7525,-0.052
6.755,-0.051
6.7575,-0.049
6.76,-0.047
6.7625,-0.047
6.765,-0.047
6.7675,-0.048
6.77,-0.05
6.7725,-0.051
6.775,-0.052
6.7775,-0.052
6.78,-0.051
6.7825,-0.049
6.785,-0.047
6.7875,-0.047
6.79,-0.048
6.7925,-0.05
6.795,-0.053
6.7975,-0.055
6.8,-0.055
6.8025,-0.054
6.805,-0.053
6.8075,-0.051
6.81,-0.05
6.8125,-0.049
6.815,-0.049
6.8175,-0.048
6.82,-0.048
6.8225,-0.048
6.825,-0.048
6.8275,-0.049
6.83,-0.05
6.8325,-0.051
6.835,-0.051
6.8375,-0.051
6.84,-0.051
6.8425,-0.05
6.845,-0.05
6.8475,-0.05
6.85,-0.05
6.8525,-0.049
6.855,-0.049
6.8575,-0.048
6.86,-0.048
6.8625,-0.048
6.865,-0.047
6.8675,-0.047
6.87,-0.047
6.8725,-0.048
6.875,-0.049
6.8775,-0.051
6.88,-0.054
6.8825,-0.057
6.885,-0.06
6.8875,-0.061
6.89,-0.061
6.8925,-0.06
6.895,-0.058
6.8975,-0.056
6.9,-0.055
6.9025,-0.055
6.905,-0.056
6.9075,-0.057
6.91,-0.057
6.9125,-0.057
6.915,-0.057
6.9175,-0.056
6.92,-0.055
6.9225,-0.055
6.925,-0.056
6.9275,-0.058
6.93,-0.059
6.9325,-0.06
6.935,-0.061
6.9375,-0.06
6.94,-0.059
6.9425,-0.057
6.945,-0.056
6.9475,-0.054
6.95,-0.054
6.9525,-0.054
6.955,-0.055
6.9575,-0.057
6.96,-0.059
6.9625,-0.06
6.965,-0.061
6.9675,-0.062
6.97,-0.061
6.9725,-0.06
6.975,-0.059
6.9775,-0.057
6.98,-0.055
6.9825,-0.054
6.985,-0.055
6.9875,-0.056
6.99,-0.059
6.9925,-0.062
6.995,-0.064
6.9975,-0.066
7,-0.065
7.0025,-0.064
7.005,-0.061
7.0075,-0.059
7.01,-0.057
7.0125,-0.056
7.015,-0.056
7.0175,-0.057
7.02,-0.057
7.0225,-0.057
7.025,-0.055
7.0275,-0.052
7.03,-0.048
7.0325,-0.044
7.035,-0.039
7.0375,-0.035
7.04,-0.033
7.0425,-0.032
7.045,-0.032
7.0475,-0.033
7.05,-0.034
7.0525,-0.034
7.055,-0.033
7.0575,-0.031
7.06,-0.026
7.0625,-0.02
7.065,-0.013
7.0675,-0.006
7.07,0.001
7.0725,0.006
7.075,0.01
7.0775,0.011
7.08,0.012
7.0825,0.013
7.085,0.014
7.0875,0.018
7.09,0.024
7.0925,0.031
7.095,0.037
7.0975,0.042
7.1,0.043
7.1025,0.04
7.105,0.035
7.1075,0.027
7.11,0.017
7.1125,0.008
7.115,-0.002
7.1175,-0.011
7.12,-0.019
7.1225,-0.028
7.125,-0.036
7.1275,-0.044
7.13,-0.051
7.1325,-0.058
7.135,-0.064
7.1375,-0.069
7.14,-0.072
7.1425,-0.074
7.145,-0.074
7.1475,-0.073
7.15,-0.071
7.1525,-0.069
7.155,-0.069
7.1575,-0.071
7.16,-0.074
7.1625,-0.078
7.165,-0.081
7.1675,-0.082
7.17,-0.081
7.1725,-0.078
7.175,-0.076
7.1775,-0.075
7.18,-0.076
7.1825,-0.08
7.185,-0.084
7.1875,-0.087
7.19,-0.088
7.1925,-0.086
7.195,-0.081
7.1975,-0.075
7.2,-0.071
7.2025,-0.069
7.205,-0.072
7.2075,-0.079
7.21,-0.09
7.2125,-0.103
7.215,-0.116
7.2175,-0.125
7.22,-0.129
7.2225,-0.125
7.225,-0.112
7.2275,-0.088
7.23,-0.05
7.2325,0.003
7.235,0.074
7.2375,0.162
7.24,0.264
7.2425,0.374
7.245,0.484
7.2475,0.582
7.25,0.662
7.2525,0.717
7.255,0.74
7.2575,0.726
7.26,0.671
7.2625,0.572
7.265,0.433
7.2675,0.263
7.27,0.079
7.2725,-0.1
7.275,-0.253
7.2775,-0.368
7.28,-0.438
7.2825,-0.466
7.285,-0.464
7.2875,-0.442
7.29,-0.411
7.2925,-0.38
7.295,-0.351
7.2975,-0.327
7.3,-0.307
7.3025,-0.29
7.305,-0.273
7.3075,-0.255
7.31,-0.233
7.3125,-0.207
7.315,-0.178
7.3175,-0.146
7.32,-0.117
7.3225,-0.092
7.325,-0.075
7.3275,-0.067
7.33,-0.067
7.3325,-0.071
7.335,-0.076
7.3375,-0.079
7.34,-0.079
7.3425,-0.076
7.345,-0.068
7.3475,-0.059
7.35,-0.051
7.3525,-0.044
7.355,-0.039
7.3575,-0.038
7.36,-0.038
7.3625,-0.039
7.365,-0.039
7.3675,-0.037
7.37,-0.033
7.3725,-0.028
7.375,-0.025
7.3775,-0.023
7.38,-0.025
7.3825,-0.029
7.385,-0.033
7.3875,-0.036
7.39,-0.037
7.3925,-0.034
7.395,-0.029
7.3975,-0.023
7.4,-0.018
7.4025,-0.014
7.405,-0.013
7.4075,-0.013
7.41,-0.015
7.4125,-0.016
7.415,-0.016
7.4175,-0.014
7.42,-0.011
7.4225,-0.007
7.425,-0.003
7.4275,0
7.43,0.001
7.4325,0.002
7.435,0.001
7.4375,0
7.44,0
7.4425,0.001
7.445,0.002
7.4475,0.005
7.45,0.009
7.4525,0.012
7.455,0.016
7.4575,0.019
7.46,0.022
7.4625,0.024
7.465,0.026
7.4675,0.028
7.47,0.031
7.4725,0.034
7.475,0.037
7.4775,0.041
7.48,0.045
7.4825,0.049
7.485,0.053
7.4875,0.057
7.49,0.06
7.4925,0.062
7.495,0.063
7.4975,0.064
7.5,0.066
7.5025,0.07
7.505,0.075
7.5075,0.082
7.51,0.089
7.5125,0.097
7.515,0.104
7.5175,0.111
7.52,0.119
7.5225,0.128
7.525,0.136
7.5275,0.145
7.53,0.153
7.5325,0.16
7.535,0.166
7.5375,0.171
7.54,0.176
7.5425,0.182
7.545,0.188
7.5475,0.194
7.55,0.201
7.5525,0.208
7.555,0.215
7.5575,0.222
7.56,0.228
7.5625,0.235
7.565,0.241
7.5675,0.247
7.57,0.253
7.5725,0.258
7.575,0.262
7.5775,0.267
7.58,0.271
7.5825,0.274
7.585,0.277
7.5875,0.278
7.59,0.277
7.5925,0.274
7.595,0.268
7.5975,0.26
7.6,0.249
7.6025,0.238
7.605,0.226
7.6075,0.214
7.61,0.203
7.6125,0.192
7.615,0.181
7.6175,0.169
7.62,0.157
7.6225,0.144
7.625,0.13
7.6275,0.115
7.63,0.1
7.6325,0.085
7.635,0.071
7.6375,0.059
7.64,0.048
7.6425,0.039
7.645,0.03
7.6475,0.022
7.65,0.014
7.6525,0.006
7.655,-0.002
7.6575,-0.009
7.66,-0.016
7.6625,-0.022
7.665,-0.028
7.6675,-0.032
7.67,-0.036
7.6725,-0.039
7.675,-0.041
7.6775,-0.043
7.68,-0.043
7.6825,-0.044
7.685,-0.045
7.6875,-0.046
7.69,-0.048
7.6925,-0.05
7.695,-0.051
7.6975,-0.051
7.7,-0.05
7.7025,-0.049
7.705,-0.048
7.7075,-0.048
7.71,-0.049
7.7125,-0.05
7.715,-0.051
7.7175,-0.053
7.72,-0.055
7.7225,-0.056
7.725,-0.056
7.7275,-0.056
7.73,-0.055
7.7325,-0.053
7.735,-0.051
7.7375,-0.05
7.74,-0.05
7.7425,-0.05
7.745,-0.051
7.7475,-0.052
7.75,-0.053
7.7525,-0.053
7.755,-0.054
7.7575,-0.055
7.76,-0.056
7.7625,-0.056
7.765,-0.057
7.7675,-0.056
7.77,-0.055
7.7725,-0.054
7.775,-0.052
7.7775,-0.052
7.78,-0.052
7.7825,-0.053
7.785,-0.054
7.7875,-0.055
7.79,-0.056
7.7925,-0.056
7.795,-0.056
7.7975,-0.055
7.8,-0.055
7.8025,-0.056
7.805,-0.056
7.8075,-0.057
7.81,-0.057
7.8125,-0.056
7.815,-0.055
7.8175,-0.054
7.82,-0.053
7.8225,-0.053
7.825,-0.052
7.8275,-0.052
7.83,-0.052
7.8325,-0.053
7.835,-0.053
7.8375,-0.054
7.84,-0.055
7.8425,-0.056
7.845,-0.057
7.8475,-0.057
7.85,-0.058
7.8525,-0.058
7.855,-0.057
7.8575,-0.055
7.86,-0.053
7.8625,-0.051
7.865,-0.048
7.8675,-0.047
7.87,-0.047
7.8725,-0.048
7.875,-0.051
7.8775,-0.054
7.88,-0.058
7.8825,-0.06
7.885,-0.061
7.8875,-0.062
7.89,-0.061
7.8925,-0.061
7.895,-0.06
7.8975,-0.06
7.9,-0.059
7.9025,-0.058
7.905,-0.057
7.9075,-0.056
7.91,-0.055
7.9125,-0.055
7.915,-0.054
7.9175,-0.054
7.92,-0.054
7.9225,-0.054
7.925,-0.054
7.9275,-0.054
7.93,-0.054
7.9325,-0.055
7.935,-0.055
7.9375,-0.056
7.94,-0.056
7.9425,-0.056
7.945,-0.055
7.9475,-0.054
7.95,-0.053
7.9525,-0.051
7.955,-0.049
7.9575,-0.047
7.96,-0.046
7.9625,-0.047
7.965,-0.048
7.9675,-0.051
7.97,-0.053
7.9725,-0.054
7.975,-0.053
7.9775,-0.05
7.98,-0.046
7.9825,-0.041
7.985,-0.037
7.9875,-0.033
7.99,-0.03
7.9925,-0.027
7.995,-0.025
7.9975,-0.023
8,-0.022
8.0025,-0.02
8.005,-0.019
8.0075,-0.019
8.01,-0.017
8.0125,-0.014
8.015,-0.01
8.0175,-0.003
8.02,0.005
8.0225,0.013
8.025,0.021
8.0275,0.026
8.03,0.028
8.0325,0.029
8.035,0.028
8.0375,0.028
8.04,0.029
8.0425,0.032
8.045,0.036
8.0475,0.04
8.05,0.044
8.0525,0.046
8.055,0.045
8.0575,0.043
8.06,0.039
8.0625,0.033
8.065,0.025
8.0675,0.015
8.07,0.004
8.0725,-0.009
8.075,-0.021
8.0775,-0.032
8.08,-0.042
8.0825,-0.05
8.085,-0.056
8.0875,-0.061
8.09,-0.065
8.0925,-0.068
8.095,-0.069
8.0975,-0.07
8.1,-0.069
8.1025,-0.068
8.105,-0.068
8.1075,-0.069
8.11,-0.073
8.1125,-0.077
8.115,-0.081
8.1175,-0.084
8.12,-0.084
8.1225,-0.083
8.125,-0.079
8.1275,-0.075
8.13,-0.073
8.1325,-0.072
8.135,-0.074
8.1375,-0.078
8.14,-0.083
8.1425,-0.087
8.145,-0.089
8.1475,-0.088
8.15,-0.084
8.1525,-0.078
8.155,-0.072
8.1575,-0.069
8.16,-0.069
8.1625,-0.075
8.165,-0.084
8.1675,-0.096
8.17,-0.109
8.1725,-0.12
8.175,-0.127
8.1775,-0.127
8.18,-0.12
8.1825,-0.102
8.185,-0.073
8.1875,-0.029
8.19,0.032
8.1925,0.11
8.195,0.203
8.1975,0.307
8.2,0.415
8.2025,0.518
8.205,0.607
8.2075,0.675
8.21,0.712
8.2125,0.712
8.215,0.671
8.2175,0.585
8.22,0.456
8.2225,0.294
8.225,0.113
8.2275,-0.068
8.23,-0.227
8.2325,-0.351
8.235,-0.431
8.2375,-0.467
8.24,-0.468
8.2425,-0.446
8.245,-0.413
8.2475,-0.378
8.25,-0.347
8.2525,-0.323
8.255,-0.306
8.2575,-0.292
8.26,-0.281
8.2625,-0.269
8.265,-0.254
8.2675,-0.234
8.27,-0.208
8.2725,-0.177
8.275,-0.145
8.2775,-0.115
8.28,-0.09
8.2825,-0.073
8.285,-0.065
8.2875,-0.065
8.29,-0.068
8.2925,-0.072
8.295,-0.073
8.2975,-0.07
8.3,-0.065
8.3025,-0.057
8.305,-0.05
8.3075,-0.045
8.31,-0.044
8.3125,-0.044
8.315,-0.046
8.3175,-0.047
8.32,-0.046
8.3225,-0.043
8.325,-0.038
8.3275,-0.033
8.33,-0.028
8.3325,-0.024
8.335,-0.022
8.3375,-0.022
8.34,-0.024
8.3425,-0.026
8.345,-0.027
8.3475,-0.027
8.35,-0.025
8.3525,-0.022
8.355,-0.02
8.3575,-0.017
8.36,-0.016
8.3625,-0.015
8.365,-0.015
8.3675,-0.016
8.37,-0.015
8.3725,-0.014
8.375,-0.011
8.3775,-0.008
8.38,-0.004
8.3825,0
8.385,0.002
8.3875,0.004
8.39,0.005
8.3925,0.006
8.395,0.006
8.3975,0.007
8.4,0.009
8.4025,0.01
8.405,0.012
8.4075,0.014
8.41,0.016
8.4125,0.018
8.415,0.02
8.4175,0.023
8.42,0.027
8.4225,0.031
8.425,0.035
8.4275,0.038
8.43,0.041
8.4325,0.043
8.435,0.044
8.4375,0.045
8.44,0.046
8.4425,0.048
8.445,0.051
8.4475,0.054
8.45,0.058
8.4525,0.064
8.455,0.07
8.4575,0.078
8.46,0.085
8.4625,0.092
8.465,0.098
8.4675,0.103
8.47,0.108
8.4725,0.111
8.475,0.115
8.4775,0.12
8.48,0.125
8.4825,0.131
8.485,0.138
8.4875,0.146
8.49,0.154
8.4925,0.163
8.495,0.171
8.4975,0.179
8.5,0.187
8.5025,0.195
8.505,0.204
8.5075,0.212
8.51,0.22
8.5125,0.227
8.515,0.234
8.5175,0.239
8.52,0.244
8.5225,0.248
8.525,0.252
8.5275,0.256
8.53,0.26
8.5325,0.264
8.535,0.268
8.5375,0.271
8.54,0.274
8.5425,0.276
8.545,0.277
8.5475,0.277
8.55,0.274
8.5525,0.268
8.555,0.261
8.5575,0.252
8.56,0.241
8.5625,0.23
8.565,0.218
8.5675,0.205
8.57,0.193
8.5725,0.179
8.575,0.165
8.5775,0.149
8.58,0.133
8.5825,0.116
8.585,0.1
8.5875,0.085
8.59,0.072
8.5925,0.06
8.595,0.049
8.5975,0.039
8.6,0.03
8.6025,0.021
8.605,0.012
8.6075,0.004
8.61,-0.004
8.6125,-0.012
8.615,-0.019
8.6175,-0.025
8.62,-0.03
8.6225,-0.034
8.625,-0.038
8.6275,-0.041
8.63,-0.044
8.6325,-0.046
8.635,-0.048
8.6375,-0.05
8.64,-0.052
8.6425,-0.054
8.645,-0.055
8.6475,-0.056
8.65,-0.056
8.6525,-0.056
8.655,-0.055
8.6575,-0.055
8.66,-0.055
8.6625,-0.056
8.665,-0.057
8.6675,-0.058
8.67,-0.058
8.6725,-0.059
8.675,-0.06
8.6775,-0.061
8.68,-0.063
8.6825,-0.065
8.685,-0.066
8.6875,-0.067
8.69,-0.067
8.6925,-0.066
8.695,-0.065
8.6975,-0.064
8.7,-0.063
8.7025,-0.062
8.705,-0.062
8.7075,-0.061
8.71,-0.061
8.7125,-0.062
8.715,-0.063
8.7175,-0.064
8.72,-0.066
8.7225,-0.068
8.725,-0.068
8.7275,-0.068
8.73,-0.066
8.7325,-0.064
8.735,-0.062
8.7375,-0.061
8.74,-0.059
8.7425,-0.058
8.745,-0.058
8.7475,-0.057
8.75,-0.057
8.7525,-0.057
8.755,-0.056
8.7575,-0.056
8.76,-0.056
8.7625,-0.055
8.765,-0.054
8.7675,-0.053
8.77,-0.053
8.7725,-0.053
8.775,-0.053
8.7775,-0.053
8.78,-0.053
8.7825,-0.052
8.785,-0.05
8.7875,-0.048
8.79,-0.047
8.7925,-0.046
8.795,-0.046
8.7975,-0.047
8.8,-0.048
8.8025,-0.049
8.805,-0.049
8.8075,-0.049
8.81,-0.049
8.8125,-0.049
8.815,-0.049
8.8175,-0.049
8.82,-0.049
8.8225,-0.049
8.825,-0.049
8.8275,-0.05
8.83,-0.051
8.8325,-0.053
8.835,-0.054
8.8375,-0.054
8.84,-0.054
8.8425,-0.053
8.845,-0.053
8.8475,-0.053
8.85,-0.053
8.8525,-0.054
8.855,-0.055
8.8575,-0.057
8.86,-0.058
8.8625,-0.058
8.865,-0.058
8.8675,-0.057
8.87,-0.055
8.8725,-0.054
8.875,-0.052
8.8775,-0.05
8.88,-0.049
8.8825,-0.047
8.885,-0.047
8.8875,-0.046
8.89,-0.046
8.8925,-0.045
8.895,-0.043
8.8975,-0.041
8.9,-0.038
8.9025,-0.035
8.905,-0.034
8.9075,-0.033
8.91,-0.033
8.9125,-0.034
8.915,-0.035
8.9175,-0.034
8.92,-0.032
8.9225,-0.028
8.925,-0.022
8.9275,-0.016
8.93,-0.01
8.9325,-0.004
8.935,0.001
8.9375,0.004
8.94,0.007
8.9425,0.009
8.945,0.012
8.9475,0.015
8.95,0.02
8.9525,0.026
8.955,0.032
8.9575,0.038
8.96,0.041
8.9625,0.042
8.965,0.039
8.9675,0.033
8.97,0.024
8.9725,0.014
8.975,0.003
8.9775,-0.008
8.98,-0.017
8.9825,-0.026
8.985,-0.032
8.9875,-0.038
8.99,-0.044
8.9925,-0.049
8.995,-0.055
8.9975,-0.061
9,-0.067
9.0025,-0.07
9.005,-0.072
9.0075,-0.073
9.01,-0.073
9.0125,-0.072
9.015,-0.072
9.0175,-0.073
9.02,-0.074
9.0225,-0.075
9.025,-0.075
9.0275,-0.075
9.03,-0.074
9.0325,-0.075
9.035,-0.076
9.0375,-0.078
9.04,-0.081
9.0425,-0.085
9.045,-0.087
9.0475,-0.087
9.05,-0.086
9.0525,-0.082
9.055,-0.078
9.0575,-0.073
9.06,-0.069
9.0625,-0.068
9.065,-0.071
9.0675,-0.078
9.07,-0.087
9.0725,-0.097
9.075,-0.108
9.0775,-0.116
9.08,-0.12
9.0825,-0.118
9.085,-0.11
9.0875,-0.092
9.09,-0.063
9.0925,-0.019
9.095,0.042
9.0975,0.12
9.1,0.215
9.1025,0.321
9.105,0.43
9.1075,0.535
9.11,0.624
9.1125,0.689
9.115,0.723
9.1175,0.72
9.12,0.674
9.1225,0.584
9.125,0.453
9.1275,0.289
9.13,0.11
9.1325,-0.065
9.135,-0.218
9.1375,-0.333
9.14,-0.404
9.1425,-0.435
9.145,-0.433
9.1475,-0.412
9.15,-0.382
9.1525,-0.352
9.155,-0.326
9.1575,-0.306
9.16,-0.291
9.1625,-0.279
9.165,-0.268
9.1675,-0.255
9.17,-0.238
9.1725,-0.216
9.175,-0.188
9.1775,-0.156
9.18,-0.123
9.1825,-0.094
9.185,-0.071
9.1875,-0.058
9.19,-0.054
9.1925,-0.056
9.195,-0.062
9.1975,-0.067
9.2,-0.068
9.2025,-0.065
9.205,-0.059
9.2075,-0.052
9.21,-0.046
9.2125,-0.042
9.215,-0.04
9.2175,-0.041
9.22,-0.042
9.2225,-0.042
9.225,-0.041
9.2275,-0.037
9.23,-0.033
9.2325,-0.027
9.235,-0.022
9.2375,-0.017
9.24,-0.015
9.2425,-0.015
9.245,-0.016
9.2475,-0.019
9.25,-0.02
9.2525,-0.02
9.255,-0.018
9.2575,-0.015
9.26,-0.012
9.2625,-0.009
9.265,-0.007
9.2675,-0.007
9.27,-0.008
9.2725,-0.009
9.275,-0.009
9.2775,-0.008
9.28,-0.006
9.2825,-0.004
9.285,-0.001
9.2875,0
9.29,0.001
9.2925,0.002
9.295,0.002
9.2975,0.002
9.3,0.002
9.3025,0.003
9.305,0.004
9.3075,0.007
9.31,0.009
9.3125,0.013
9.315,0.017
9.3175,0.021
9.32,0.025
9.3225,0.029
9.325,0.032
9.3275,0.035
9.33,0.037
9.3325,0.039
9.335,0.041
9.3375,0.043
9.34,0.046
9.3425,0.048
9.345,0.051
9.3475,0.053
9.35,0.056
9.3525,0.059
9.355,0.063
9.3575,0.068
9.36,0.074
9.3625,0.081
9.365,0.088
9.3675,0.095
9.37,0.1
9.3725,0.105
9.375,0.11
9.3775,0.115
9.38,0.12
9.3825,0.126
9.385,0.132
9.3875,0.138
9.39,0.144
9.3925,0.15
9.395,0.156
9.3975,0.162
9.4,0.17
9.4025,0.178
9.405,0.186
9.4075,0.194
9.41,0.201
9.4125,0.208
9.415,0.215
9.4175,0.221
9.42,0.228
9.4225,0.235
9.425,0.242
9.4275,0.249
9.43,0.254
9.4325,0.259
9.435,0.263
9.4375,0.266
9.44,0.268
9.4425,0.27
9.445,0.271
9.4475,0.271
9.45,0.269
9.4525,0.267
9.455,0.262
9.4575,0.255
9.46,0.246
9.4625,0.236
9.465,0.225
9.4675,0.213
9.47,0.201
9.4725,0.188
9.475,0.174
9.4775,0.16
9.48,0.144
9.4825,0.127
9.485,0.11
9.4875,0.093
9.49,0.078
9.4925,0.066
9.495,0.055
9.4975,0.046
9.5,0.037
9.5025,0.028
9.505,0.019
9.5075,0.009
9.51,0.001
9.5125,-0.007
9.515,-0.013
9.5175,-0.018
9.52,-0.023
9.5225,-0.029
9.525,-0.034
9.5275,-0.039
9.53,-0.043
9.5325,-0.045
9.535,-0.046
9.5375,-0.046
9.54,-0.047
9.5425,-0.049
9.545,-0.052
9.5475,-0.055
9.55,-0.058
9.5525,-0.059
9.555,-0.059
9.5575,-0.058
9.56,-0.057
9.5625,-0.056
9.565,-0.056
9.5675,-0.057
9.57,-0.058
9.5725,-0.06
9.575,-0.062
9.5775,-0.064
9.58,-0.066
9.5825,-0.068
9.585,-0.068
9.5875,-0.069
9.59,-0.068
9.5925,-0.067
9.595,-0.066
9.5975,-0.064
9.6,-0.062
9.6025,-0.06
9.605,-0.059
9.6075,-0.058
9.61,-0.059
9.6125,-0.06
9.615,-0.061
9.6175,-0.062
9.62,-0.063
9.6225,-0.063
9.625,-0.064
9.6275,-0.065
9.63,-0.066
9.6325,-0.066
9.635,-0.067
9.6375,-0.066
9.64,-0.065
9.6425,-0.064
9.645,-0.062
9.6475,-0.059
9.65,-0.057
9.6525,-0.056
9.655,-0.055
9.6575,-0.055
9.66,-0.055
9.6625,-0.056
9.665,-0.058
9.6675,-0.059
9.67,-0.059
9.6725,-0.06
9.675,-0.06
9.6775,-0.06
9.68,-0.06
9.6825,-0.06
9.685,-0.06
9.6875,-0.059
9.69,-0.057
9.6925,-0.055
9.695,-0.053
9.6975,-0.051
9.7,-0.05
9.7025,-0.05
9.705,-0.051
9.7075,-0.052
9.71,-0.052
9.7125,-0.054
9.715,-0.056
9.7175,-0.058
9.72,-0.06
9.7225,-0.062
9.725,-0.063
9.7275,-0.061
9.73,-0.059
9.7325,-0.057
9.735,-0.054
9.7375,-0.053
9.74,-0.053
9.7425,-0.053
9.745,-0.055
9.7475,-0.056
9.75,-0.057
9.7525,-0.057
9.755,-0.057
9.7575,-0.057
9.76,-0.057
9.7625,-0.056
9.765,-0.057
9.7675,-0.057
9.77,-0.058
9.7725,-0.06
9.775,-0.062
9.7775,-0.063
9.78,-0.064
9.7825,-0.063
9.785,-0.062
9.7875,-0.061
9.79,-0.059
9.7925,-0.057
9.795,-0.055
9.7975,-0.054
9.8,-0.054
9.8025,-0.053
9.805,-0.054
9.8075,-0.055
9.81,-0.056
9.8125,-0.058
9.815,-0.06
9.8175,-0.061
9.82,-0.061
9.8225,-0.06
9.825,-0.059
9.8275,-0.057
9.83,-0.055
9.8325,-0.055
9.835,-0.055
9.8375,-0.057
9.84,-0.059
9.8425,-0.06
9.845,-0.06
9.8475,-0.059
9.85,-0.056
9.8525,-0.051
9.855,-0.046
9.8575,-0.041
9.86,-0.036
9.8625,-0.031
9.865,-0.028
9.8675,-0.025
9.87,-0.023
9.8725,-0.023
9.875,-0.023
9.8775,-0.024
9.88,-0.024
9.8825,-0.023
9.885,-0.02
9.8875,-0.014
9.89,-0.008
9.8925,0
9.895,0.007
9.8975,0.013
9.9,0.016
9.9025,0.018
9.905,0.018
9.9075,0.017
9.91,0.018
9.9125,0.019
9.915,0.023
9.9175,0.028
9.92,0.033
9.9225,0.038
9.925,0.041
9.9275,0.042
9.93,0.04
9.9325,0.035
9.935,0.028
9.9375,0.019
9.94,0.009
9.9425,-0.001
9.945,-0.01
9.9475,-0.02
9.95,-0.029
9.9525,-0.039
9.955,-0.048
9.9575,-0.057
9.96,-0.065
9.9625,-0.07
9.965,-0.073
9.9675,-0.074
9.97,-0.072
9.9725,-0.07
9.975,-0.068
9.9775,-0.068
9.98,-0.07
9.9825,-0.074
9.985,-0.078
9.9875,-0.081
9.99,-0.083
9.9925,-0.082
9.995,-0.08
9.9975,-0.077
10,-0.075
10.0025,-0.073
10.005,-0.073
10.0075,-0.075
10.01,-0.078
10.0125,-0.082
10.015,-0.084
10.0175,-0.084
10.02,-0.083
10.0225,-0.081
10.025,-0.078
10.0275,-0.076
10.03,-0.076
10.0325,-0.08
10.035,-0.086
10.0375,-0.095
10.04,-0.105
10.0425,-0.115
10.045,-0.121
10.0475,-0.122
10.05,-0.115
10.0525,-0.098
10.055,-0.068
10.0575,-0.023
10.06,0.039
10.0625,0.118
10.065,0.214
10.0675,0.319
10.07,0.428
10.0725,0.53
10.075,0.618
10.0775,0.682
10.08,0.717
10.0825,0.717
10.085,0.677
10.0875,0.594
10.09,0.468
10.0925,0.309
10.095,0.129
10.0975,-0.051
10.1,-0.211
10.1025,-0.337
10.105,-0.419
10.1075,-0.459
10.11,-0.465
10.1125,-0.448
10.115,-0.419
10.1175,-0.387
10.12,-0.356
10.1225,-0.329
10.125,-0.305
10.1275,-0.286
10.13,-0.269
10.1325,-0.253
10.135,-0.235
10.1375,-0.214
10.14,-0.188
10.1425,-0.158
10.145,-0.127
10.1475,-0.099
10.15,-0.077
10.1525,-0.063
10.155,-0.059
10.1575,-0.061
10.16,-0.065
10.1625,-0.07
10.165,-0.071
10.1675,-0.068
10.17,-0.061
10.1725,-0.053
10.175,-0.046
10.1775,-0.041
10.18,-0.039
10.1825,-0.039
10.185,-0.041
10.1875,-0.043
10.19,-0.043
10.1925,-0.042
10.195,-0.038
10.1975,-0.033
10.2,-0.028
10.2025,-0.024
10.205,-0.022
10.2075,-0.022
10.21,-0.023
10.2125,-0.025
10.215,-0.026
10.2175,-0.026
10.22,-0.024
10.2225,-0.02
10.225,-0.016
10.2275,-0.013
10.23,-0.01
10.2325,-0.01
10.235,-0.011
10.2375,-0.013
10.24,-0.014
10.2425,-0.015
10.245,-0.015
10.2475,-0.012
10.25,-0.009
10.2525,-0.005
10.255,-0.002
10.2575,0
10.26,0
10.2625,0
10.265,0
10.2675,0
10.27,0.001
10.2725,0.003
10.275,0.005
10.2775,0.009
10.28,0.012
10.2825,0.014
10.285,0.017
10.2875,0.019
10.29,0.021
10.2925,0.023
10.295,0.025
10.2975,0.028
10.3,0.03
10.3025,0.031
10.305,0.033
10.3075,0.035
10.31,0.037
10.3125,0.041
10.315,0.046
10.3175,0.052
10.32,0.058
10.3225,0.064
10.325,0.069
10.3275,0.073
10.33,0.077
10.3325,0.081
10.335,0.085
10.3375,0.091
10.34,0.098
10.3425,0.105
10.345,0.113
10.3475,0.12
10.35,0.126
10.3525,0.131
10.355,0.136
10.3575,0.142
10.36,0.148
10.3625,0.155
10.365,0.163
10.3675,0.171
10.37,0.179
10.3725,0.187
10.375,0.196
10.3775,0.205
10.38,0.213
10.3825,0.221
10.385,0.229
10.3875,0.235
10.39,0.241
10.3925,0.245
10.395,0.249
10.3975,0.252
10.4,0.256
10.4025,0.259
10.405,0.263
10.4075,0.267
10.41,0.27
10.4125,0.273
10.415,0.274
10.4175,0.273
10.42,0.269
10.4225,0.264
10.425,0.256
10.4275,0.246
10.43,0.235
10.4325,0.224
10.435,0.212
10.4375,0.199
10.44,0.185
10.4425,0.17
10.445,0.155
10.4475,0.14
10.45,0.125
10.4525,0.111
10.455,0.098
10.4575,0.086
10.46,0.074
10.4625,0.062
10.465,0.049
10.4675,0.037
10.47,0.026
10.4725,0.017
10.475,0.009
10.4775,0.003
10.48,-0.003
10.4825,-0.009
10.485,-0.014
10.4875,-0.019
10.49,-0.024
10.4925,-0.028
10.495,-0.031
10.4975,-0.033
10.5,-0.036
10.5025,-0.038
10.505,-0.041
10.5075,-0.043
10.51,-0.046
10.5125,-0.048
10.515,-0.05
10.5175,-0.052
10.52,-0.053
10.5225,-0.053
10.525,-0.052
10.5275,-0.052
10.53,-0.051
10.5325,-0.051
10.535,-0.051
10.5375,-0.051
10.54,-0.051
10.5425,-0.051
10.545,-0.05
10.5475,-0.049
10.55,-0.048
10.5525,-0.048
10.555,-0.048
10.5575,-0.049
10.56,-0.05
10.5625,-0.051
10.565,-0.052
10.5675,-0.052
10.57,-0.053
10.5725,-0.053
10.575,-0.054
10.5775,-0.054
10.58,-0.055
10.5825,-0.055
10.585,-0.055
10.5875,-0.054
10.59,-0.053
10.5925,-0.052
10.595,-0.051
10.5975,-0.05
10.6,-0.049
10.6025,-0.05
10.605,-0.051
10.6075,-0.052
10.61,-0.054
10.6125,-0.054
10.615,-0.055
10.6175,-0.054
10.62,-0.054
10.6225,-0.052
10.625,-0.051
10.6275,-0.049
10.63,-0.047
10.6325,-0.045
10.635,-0.045
10.6375,-0.045
10.64,-0.045
10.6425,-0.046
10.645,-0.047
10.6475,-0.048
10.65,-0.047
10.6525,-0.047
10.655,-0.045
10.6575,-0.044
10.66,-0.043
10.6625,-0.042
10.665,-0.042
10.6675,-0.043
10.67,-0.045
10.6725,-0.046
10.675,-0.048
10.6775,-0.048
10.68,-0.048
10.6825,-0.047
10.685,-0.045
10.6875,-0.044
10.69,-0.043
10.6925,-0.044
10.695,-0.047
10.6975,-0.05
10.7,-0.054
10.7025,-0.057
10.705,-0.059
10.7075,-0.059
10.71,-0.058
10.7125,-0.056
10.715,-0.053
10.7175,-0.051
10.72,-0.049
10.7225,-0.048
10.725,-0.048
10.7275,-0.048
10.73,-0.048
10.7325,-0.048
10.735,-0.047
10.7375,-0.046
10.74,-0.045
10.7425,-0.043
10.745,-0.042
10.7475,-0.041
10.75,-0.04
10.7525,-0.041
10.755,-0.041
10.7575,-0.043
10.76,-0.045
10.7625,-0.047
10.765,-0.05
10.7675,-0.051
10.77,-0.052
10.7725,-0.052
10.775,-0.051
10.7775,-0.05
10.78,-0.049
10.7825,-0.049
10.785,-0.05
10.7875,-0.051
10.79,-0.053
10.7925,-0.055
10.795,-0.056
10.7975,-0.056
10.8,-0.055
10.8025,-0.054
10.805,-0.053
10.8075,-0.053
10.81,-0.053
10.8125,-0.054
10.815,-0.055
10.8175,-0.056
10.82,-0.054
10.8225,-0.052
10.825,-0.049
10.8275,-0.045
10.83,-0.041
10.8325,-0.037
10.835,-0.033
10.8375,-0.029
10.84,-0.025
10.8425,-0.022
10.845,-0.019
10.8475,-0.017
10.85,-0.015
10.8525,-0.013
10.855,-0.011
10.8575,-0.009
10.86,-0.006
10.8625,-0.002
10.865,0.003
10.8675,0.009
10.87,0.015
10.8725,0.021
10.875,0.026
10.8775,0.03
10.88,0.032
10.8825,0.032
10.885,0.033
10.8875,0.034
10.89,0.035
10.8925,0.038
10.895,0.04
10.8975,0.04
10.9,0.039
10.9025,0.036
10.905,0.032
10.9075,0.027
10.91,0.023
10.9125,0.018
10.915,0.013
10.9175,0.006
10.92,-0.003
10.9225,-0.014
10.925,-0.027
10.9275,-0.041
10.93,-0.053
10.9325,-0.063
10.935,-0.07
10.9375,-0.073
10.94,-0.072
10.9425,-0.07
10.945,-0.066
10.9475,-0.062
10.95,-0.06
10.9525,-0.061
10.955,-0.064
10.9575,-0.067
10.96,-0.072
10.9625,-0.075
10.965,-0.076
10.9675,-0.075
10.97,-0.073
10.9725,-0.071
10.975,-0.069
10.9775,-0.07
10.98,-0.072
10.9825,-0.076
10.985,-0.08
10.9875,-0.082
10.99,-0.082
10.9925,-0.081
10.995,-0.077
10.9975,-0.074
11,-0.071
11.0025,-0.071
11.005,-0.075
11.0075,-0.082
11.01,-0.092
11.0125,-0.104
11.015,-0.115
11.0175,-0.123
11.02,-0.124
11.0225,-0.117
11.025,-0.099
11.0275,-0.068
11.03,-0.021
11.0325,0.042
11.035,0.124
11.0375,0.221
11.04,0.328
11.0425,0.439
11.045,0.543
11.0475,0.632
11.05,0.698
11.0525,0.734
11.055,0.735
11.0575,0.696
11.06,0.612
11.0625,0.486
11.065,0.325
11.0675,0.142
11.07,-0.042
11.0725,-0.207
11.075,-0.337
11.0775,-0.423
11.08,-0.466
11.0825,-0.473
11.085,-0.456
11.0875,-0.426
11.09,-0.393
11.0925,-0.361
11.095,-0.332
11.0975,-0.309
11.1,-0.289
11.1025,-0.271
11.105,-0.255
11.1075,-0.236
11.11,-0.213
11.1125,-0.186
11.115,-0.155
11.1175,-0.123
11.12,-0.094
11.1225,-0.072
11.125,-0.059
11.1275,-0.054
11.13,-0.056
11.1325,-0.061
11.135,-0.065
11.1375,-0.066
11.14,-0.063
11.1425,-0.057
11.145,-0.049
11.1475,-0.042
11.15,-0.037
11.1525,-0.035
11.155,-0.036
11.1575,-0.039
11.16,-0.041
11.1625,-0.042
11.165,-0.039
11.1675,-0.035
11.17,-0.028
11.1725,-0.022
11.175,-0.018
11.1775,-0.016
11.18,-0.018
11.1825,-0.021
11.185,-0.025
11.1875,-0.028
11.19,-0.029
11.1925,-0.027
11.195,-0.024
11.1975,-0.02
11.2,-0.017
11.2025,-0.013
11.205,-0.011
11.2075,-0.009
11.21,-0.008
11.2125,-0.007
11.215,-0.006
11.2175,-0.005
11.22,-0.003
11.2225,-0.001
11.225,0.003
11.2275,0.006
11.23,0.008
11.2325,0.009
11.235,0.01
11.2375,0.011
11.24,0.011
11.2425,0.013
11.245,0.015
11.2475,0.018
11.25,0.021
11.2525,0.024
11.255,0.026
11.2575,0.027
11.26,0.028
11.2625,0.029
11.265,0.031
11.2675,0.033
11.27,0.037
11.2725,0.041
11.275,0.046
11.2775,0.05
11.28,0.054
11.2825,0.056
11.285,0.057
11.2875,0.058
11.29,0.059
11.2925,0.061
11.295,0.065
11.2975,0.07
11.3,0.075
11.3025,0.081
11.305,0.087
11.3075,0.092
11.31,0.099
11.3125,0.105
11.315,0.111
11.3175,0.118
11.32,0.125
11.3225,0.131
11.325,0.137
11.3275,0.144
11.33,0.15
11.3325,0.156
11.335,0.163
11.3375,0.169
11.34,0.176
11.3425,0.184
11.345,0.191
11.3475,0.198
11.35,0.205
11.3525,0.212
11.355,0.219
11.3575,0.225
11.36,0.232
11.3625,0.239
11.365,0.245
11.3675,0.25
11.37,0.255
11.3725,0.259
11.375,0.263
11.3775,0.267
11.38,0.272
11.3825,0.276
11.385,0.278
11.3875,0.279
11.39,0.277
11.3925,0.272
11.395,0.264
11.3975,0.254
11.4,0.243
11.4025,0.232
11.405,0.221
11.4075,0.21
11.41,0.199
11.4125,0.188
11.415,0.177
11.4175,0.164
11.42,0.151
11.4225,0.136
11.425,0.121
11.4275,0.105
11.43,0.091
11.4325,0.076
11.435,0.063
11.4375,0.051
11.44,0.04
11.4425,0.03
11.445,0.02
11.4475,0.011
11.45,0.003
11.4525,-0.005
11.455,-0.012
11.4575,-0.019
11.46,-0.026
11.4625,-0.031
11.465,-0.036
11.4675,-0.04
11.47,-0.043
11.4725,-0.045
11.475,-0.046
11.4775,-0.046
11.48,-0.046
11.4825,-0.047
11.485,-0.048
11.4875,-0.05
11.49,-0.052
11.4925,-0.054
11.495,-0.056
11.4975,-0.058
11.5,-0.059
11.5025,-0.06
11.505,-0.062
11.5075,-0.063
11.51,-0.064
11.5125,-0.065
11.515,-0.065
11.5175,-0.064
11.52,-0.062
11.5225,-0.061
11.525,-0.06
11.5275,-0.059
11.53,-0.059
11.5325,-0.059
11.535,-0.06
11.5375,-0.061
11.54,-0.062
11.5425,-0.063
11.545,-0.063
11.5475,-0.063
11.55,-0.062
11.5525,-0.062
11.555,-0.061
11.5575,-0.061
11.56,-0.061
11.5625,-0.06
11.565,-0.059
11.5675,-0.057
11.57,-0.054
11.5725,-0.053
11.575,-0.052
11.5775,-0.052
11.58,-0.053
11.5825,-0.054
11.585,-0.055
11.5875,-0.055
11.59,-0.055
11.5925,-0.054
11.595,-0.054
11.5975,-0.053
11.6,-0.053
11.6025,-0.051
11.605,-0.049
11.6075,-0.047
11.61,-0.045
11.6125,-0.045
11.615,-0.047
11.6175,-0.05
11.62,-0.053
11.6225,-0.056
11.625,-0.058
11.6275,-0.058
11.63,-0.057
11.6325,-0.056
11.635,-0.056
11.6375,-0.055
11.64,-0.055
11.6425,-0.054
11.645,-0.054
11.6475,-0.054
11.65,-0.054
11.6525,-0.055
11.655,-0.056
11.6575,-0.056
11.66,-0.056
11.6625,-0.056
11.665,-0.055
11.6675,-0.054
11.67,-0.053
11.6725,-0.052
11.675,-0.051
11.6775,-0.051
11.68,-0.052
11.6825,-0.053
11.685,-0.054
11.6875,-0.056
11.69,-0.057
11.6925,-0.057
11.695,-0.057
11.6975,-0.055
11.7,-0.055
11.7025,-0.054
11.705,-0.055
11.7075,-0.057
11.71,-0.059
11.7125,-0.06
11.715,-0.061
11.7175,-0.06
11.72,-0.058
11.7225,-0.056
11.725,-0.054
11.7275,-0.052
11.73,-0.051
11.7325,-0.049
11.735,-0.048
11.7375,-0.047
11.74,-0.046
11.7425,-0.045
11.745,-0.044
11.7475,-0.044
11.75,-0.044
11.7525,-0.042
11.755,-0.04
11.7575,-0.036
11.76,-0.032
11.7625,-0.029
11.765,-0.027
11.7675,-0.026
11.77,-0.027
11.7725,-0.027
11.775,-0.028
11.7775,-0.027
11.78,-0.025
11.7825,-0.02
11.785,-0.015
11.7875,-0.008
11.79,-0.002
11.7925,0.003
11.795,0.008
11.7975,0.012
11.8,0.015
11.8025,0.018
11.805,0.02
11.8075,0.024
11.81,0.028
11.8125,0.033
11.815,0.039
11.8175,0.044
11.82,0.046
11.8225,0.046
11.825,0.041
11.8275,0.032
11.83,0.021
11.8325,0.009
11.835,-0.004
11.8375,-0.015
11.84,-0.025
11.8425,-0.035
11.845,-0.044
11.8475,-0.052
11.85,-0.059
11.8525,-0.064
11.855,-0.067
11.8575,-0.069
11.86,-0.071
11.8625,-0.073
11.865,-0.076
11.8675,-0.079
11.87,-0.082
11.8725,-0.085
11.875,-0.086
11.8775,-0.087
11.88,-0.086
11.8825,-0.085
11.885,-0.082
11.8875,-0.08
11.89,-0.078
11.8925,-0.078
11.895,-0.08
11.8975,-0.083
11.9,-0.087
11.9025,-0.09
11.905,-0.091
11.9075,-0.09
11.91,-0.085
11.9125,-0.079
11.915,-0.074
11.9175,-0.071
11.92,-0.072
11.9225,-0.076
11.925,-0.083
11.9275,-0.092
11.93,-0.102
11.9325,-0.11
11.935,-0.117
11.9375,-0.121
11.94,-0.121
11.9425,-0.114
11.945,-0.097
11.9475,-0.066
11.95,-0.019
11.9525,0.047
11.955,0.132
11.9575,0.233
11.96,0.343
11.9625,0.453
11.965,0.553
11.9675,0.635
11.97,0.689
11.9725,0.71
11.975,0.691
11.9775,0.629
11.98,0.524
11.9825,0.38
11.985,0.208
11.9875,0.026
11.99,-0.147
11.9925,-0.293
11.995,-0.398
11.9975,-0.458
12,-0.478
12.0025,-0.468
12.005,-0.441
12.0075,-0.406
12.01,-0.371
12.0125,-0.34
12.015,-0.315
12.0175,-0.296
12.02,-0.282
12.0225,-0.272
12.025,-0.263
12.0275,-0.253
12.03,-0.237
12.0325,-0.214
12.035,-0.185
12.0375,-0.152
12.04,-0.121
12.0425,-0.095
12.045,-0.078
12.0475,-0.069
12.05,-0.067
12.0525,-0.069
12.055,-0.071
12.0575,-0.071
12.06,-0.069
12.0625,-0.066
12.065,-0.061
12.0675,-0.056
12.07,-0.051
12.0725,-0.047
12.075,-0.044
12.0775,-0.043
12.08,-0.043
12.0825,-0.044
12.085,-0.044
12.0875,-0.045
12.09,-0.044
12.0925,-0.041
12.095,-0.038
12.0975,-0.035
12.1,-0.032
12.1025,-0.029
12.105,-0.027
12.1075,-0.024
12.11,-0.021
12.1125,-0.018
12.115,-0.015
12.1175,-0.013
12.12,-0.012
12.1225,-0.013
12.125,-0.014
12.1275,-0.015
12.13,-0.017
12.1325,-0.017
12.135,-0.016
12.1375,-0.012
12.14,-0.007
12.1425,-0.001
12.145,0.003
12.1475,0.006
12.15,0.005
12.1525,0.002
12.155,-0.001
12.1575,-0.004
12.16,-0.004
12.1625,-0.002
12.165,0.002
12.1675,0.007
12.17,0.012
12.1725,0.015
12.175,0.018
12.1775,0.021
12.18,0.023
12.1825,0.026
12.185,0.029
12.1875,0.032
12.19,0.034
12.1925,0.036
12.195,0.037
12.1975,0.038
12.2,0.04
12.2025,0.043
12.205,0.048
12.2075,0.053
12.21,0.059
12.2125,0.065
12.215,0.07
12.2175,0.075
12.22,0.079
12.2225,0.083
12.225,0.086
12.2275,0.09
12.23,0.095
12.2325,0.101
12.235,0.108
12.2375,0.115
12.24,0.123
12.2425,0.131
12.245,0.14
12.2475,0.148
12.25,0.156
12.2525,0.165
12.255,0.173
12.2575,0.18
12.26,0.186
12.2625,0.191
12.265,0.196
12.2675,0.201
12.27,0.208
12.2725,0.217
12.275,0.227
12.2775,0.238
12.28,0.248
12.2825,0.256
12.285,0.263
12.2875,0.268
12.29,0.271
12.2925,0.274
12.295,0.277
12.2975,0.279
12.3,0.28
12.3025,0.281
12.305,0.282
12.3075,0.281
12.31,0.279
12.3125,0.274
12.315,0.267
12.3175,0.258
12.32,0.247
12.3225,0.235
12.325,0.223
12.3275,0.21
12.33,0.197
12.3325,0.184
12.335,0.17
12.3375,0.157
12.34,0.145
12.3425,0.133
12.345,0.121
12.3475,0.107
12.35,0.091
12.3525,0.073
12.355,0.055
12.3575,0.036
12.36,0.02
12.3625,0.007
12.365,-0.003
12.3675,-0.01
12.37,-0.015
12.3725,-0.02
12.375,-0.024
12.3775,-0.028
12.38,-0.032
12.3825,-0.036
12.385,-0.04
12.3875,-0.044
12.39,-0.049
12.3925,-0.053
12.395,-0.056
12.3975,-0.057
12.4,-0.056
12.4025,-0.053
12.405,-0.05
12.4075,-0.049
12.41,-0.049
12.4125,-0.052
12.415,-0.057
12.4175,-0.061
12.42,-0.065
12.4225,-0.068
12.425,-0.07
12.4275,-0.072
12.43,-0.074
12.4325,-0.073
12.435,-0.071
12.4375,-0.066
12.44,-0.061
12.4425,-0.057
12.445,-0.055
12.4475,-0.057
12.45,-0.061
12.4525,-0.066
12.455,-0.07
12.4575,-0.071
12.46,-0.072
12.4625,-0.071
12.465,-0.069
12.4675,-0.068
12.47,-0.065
12.4725,-0.061
12.475,-0.057
12.4775,-0.052
12.48,-0.05
12.4825,-0.05
12.485,-0.053
12.4875,-0.058
12.49,-0.063
12.4925,-0.066
12.495,-0.067
12.4975,-0.066
12.5,-0.063
12.5025,-0.059
12.505,-0.056
12.5075,-0.054
12.51,-0.053
12.5125,-0.053
12.515,-0.054
12.5175,-0.055
12.52,-0.056
12.5225,-0.055
12.525,-0.054
12.5275,-0.053
12.53,-0.052
12.5325,-0.047
12.535,-0.047
12.5375,-0.049
12.54,-0.051
12.5425,-0.052
12.545,-0.05
12.5475,-0.047
12.55,-0.042
12.5525,-0.037
12.555,-0.032
12.5575,-0.03
12.56,-0.031
12.5625,-0.033
12.565,-0.035
12.5675,-0.035
12.57,-0.033
12.5725,-0.03
12.575,-0.025
12.5775,-0.021
12.58,-0.018
12.5825,-0.018
12.585,-0.019
12.5875,-0.022
12.59,-0.024
12.5925,-0.025
12.595,-0.025
12.5975,-0.022
12.6,-0.019
12.6025,-0.014
12.605,-0.01
12.6075,-0.006
12.61,-0.003
12.6125,-0.001
12.615,0.002
12.6175,0.003
12.62,0.005
12.6225,0.006
12.625,0.007
12.6275,0.008
12.63,0.009
12.6325,0.009
12.635,0.011
12.6375,0.012
12.64,0.014
12.6425,0.016
12.645,0.018
12.6475,0.02
12.65,0.022
12.6525,0.024
12.655,0.027
12.6575,0.03
12.66,0.033
12.6625,0.036
12.665,0.039
12.6675,0.042
12.67,0.044
12.6725,0.048
12.675,0.052
12.6775,0.057
12.68,0.063
12.6825,0.07
12.685,0.078
12.6875,0.084
12.69,0.09
12.6925,0.096
12.695,0.101
12.6975,0.106
12.7,0.111
12.7025,0.117
12.705,0.123
12.7075,0.131
12.71,0.139
12.7125,0.147
12.715,0.156
12.7175,0.165
12.72,0.173
12.7225,0.181
12.725,0.189
12.7275,0.197
12.73,0.204
12.7325,0.211
12.735,0.218
12.7375,0.225
12.74,0.231
12.7425,0.237
12.745,0.242
12.7475,0.248
12.75,0.253
12.7525,0.257
12.755,0.26
12.7575,0.261
12.76,0.26
12.7625,0.258
12.765,0.256
12.7675,0.253
12.77,0.25
12.7725,0.248
12.775,0.244
12.7775,0.238
12.78,0.23
12.7825,0.22
12.785,0.208
12.7875,0.194
12.79,0.18
12.7925,0.166
12.795,0.152
12.7975,0.138
12.8,0.123
12.8025,0.108
12.805,0.094
12.8075,0.081
12.81,0.068
12.8125,0.057
12.815,0.046
12.8175,0.036
12.82,0.027
12.8225,0.017
12.825,0.009
12.8275,0.001
12.83,-0.006
12.8325,-0.012
12.835,-0.017
12.8375,-0.02
12.84,-0.024
12.8425,-0.027
12.845,-0.031
12.8475,-0.034
12.85,-0.037
12.8525,-0.039
12.855,-0.041
12.8575,-0.044
12.86,-0.046
12.8625,-0.048
12.865,-0.051
12.8675,-0.053
12.87,-0.055
12.8725,-0.055
12.875,-0.055
12.8775,-0.055
12.88,-0.054
12.8825,-0.052
12.885,-0.051
12.8875,-0.049
12.89,-0.047
12.8925,-0.047
12.895,-0.047
12.8975,-0.048
12.9,-0.05
12.9025,-0.051
12.905,-0.052
12.9075,-0.052
12.91,-0.051
12.9125,-0.049
12.915,-0.047
12.9175,-0.047
12.92,-0.048
12.9225,-0.05
12.925,-0.053
12.9275,-0.055
12.93,-0.055
12.9325,-0.054
12.935,-0.053
12.9375,-0.051
12.94,-0.05
12.9425,-0.049
12.945,-0.049
12.9475,-0.048
12.95,-0.048
12.9525,-0.048
12.955,-0.048
12.9575,-0.049
12.96,-0.05
12.9625,-0.051
12.965,-0.051
12.9675,-0.051
12.97,-0.051
12.9725,-0.05
12.975,-0.05
12.9775,-0.05
12.98,-0.05
12.9825,-0.049
12.985,-0.049
12.9875,-0.048
12.99,-0.048
12.9925,-0.048
12.995,-0.047
12.9975,-0.047
13,-0.047
13.0025,-0.048
13.005,-0.049
13.0075,-0.051
13.01,-0.054
13.0125,-0.057
13.015,-0.06
13.0175,-0.061
13.02,-0.061
13.0225,-0.06
13.025,-0.058
13.0275,-0.056
13.03,-0.055
13.0325,-0.055
13.035,-0.056
13.0375,-0.057
13.04,-0.057
13.0425,-0.057
13.045,-0.057
13.0475,-0.056
13.05,-0.055
13.0525,-0.055
13.055,-0.056
13.0575,-0.058
13.06,-0.059
13.0625,-0.06
13.065,-0.061
13.0675,-0.06
13.07,-0.059
13.0725,-0.057
13.075,-0.056
13.0775,-0.054
13.08,-0.054
13.0825,-0.054
13.085,-0.055
13.0875,-0.057
13.09,-0.059
13.0925,-0.06
13.095,-0.061
13.0975,-0.062
13.1,-0.061
13.1025,-0.06
13.105,-0.059
13.1075,-0.057
13.11,-0.055
13.1125,-0.054
13.115,-0.055
13.1175,-0.056
13.12,-0.059
13.1225,-0.062
13.125,-0.064
13.1275,-0.066
13.13,-0.065
13.1325,-0.064
13.135,-0.061
13.1375,-0.059
13.14,-0.057
13.1425,-0.056
13.145,-0.056
13.1475,-0.057
13.15,-0.057
13.1525,-0.057
13.155,-0.055
13.1575,-0.052
13.16,-0.048
13.1625,-0.044
13.165,-0.039
13.1675,-0.035
13.17,-0.033
13.1725,-0.032
13.175,-0.032
13.1775,-0.033
13.18,-0.034
13.1825,-0.034
13.185,-0.033
13.1875,-0.031
13.19,-0.026
13.1925,-0.02
13.195,-0.013
13.1975,-0.006
13.2,0.001
13.2025,0.006
13.205,0.01
13.2075,0.011
13.21,0.012
13.2125,0.013
13.215,0.014
13.2175,0.018
13.22,0.024
13.2225,0.031
13.225,0.037
13.2275,0.042
13.23,0.043
13.2325,0.04
13.235,0.035
13.2375,0.027
13.24,0.017
13.2425,0.008
13.245,-0.002
13.2475,-0.011
13.25,-0.019
13.2525,-0.028
13.255,-0.036
13.2575,-0.044
13.26,-0.051
13.2625,-0.058
13.265,-0.064
13.2675,-0.069
13.27,-0.072
13.2725,-0.074
13.275,-0.074
13.2775,-0.073
13.28,-0.071
13.2825,-0.069
13.285,-0.069
13.2875,-0.071
13.29,-0.074
13.2925,-0.078
13.295,-0.081
13.2975,-0.082
13.3,-0.081
13.3025,-0.078
13.305,-0.076
13.3075,-0.075
13.31,-0.076
13.3125,-0.08
13.315,-0.084
13.3175,-0.087
13.32,-0.088
13.3225,-0.086
13.325,-0.081
13.3275,-0.075
13.33,-0.071
13.3325,-0.069
13.335,-0.072
13.3375,-0.079
13.34,-0.09
13.3425,-0.103
13.345,-0.116
13.3475,-0.125
13.35,-0.129
13.3525,-0.125
13.355,-0.112
13.3575,-0.088
13.36,-0.05
13.3625,0.003
13.365,0.074
13.3675,0.162
13.37,0.264
13.3725,0.374
13.375,0.484
13.3775,0.582
13.38,0.662
13.3825,0.717
13.385,0.74
13.3875,0.726
13.39,0.671
13.3925,0.572
13.395,0.433
13.3975,0.263
13.4,0.079
13.4025,-0.1
13.405,-0.253
13.4075,-0.368
13.41,-0.438
13.4125,-0.466
13.415,-0.464
13.4175,-0.442
13.42,-0.411
13.4225,-0.38
13.425,-0.351
13.4275,-0.327
13.43,-0.307
13.4325,-0.29
13.435,-0.273
13.4375,-0.255
13.44,-0.233
13.4425,-0.207
13.445,-0.178
13.4475,-0.146
13.45,-0.117
13.4525,-0.092
13.455,-0.075
13.4575,-0.067
13.46,-0.067
13.4625,-0.071
13.465,-0.076
13.4675,-0.079
13.47,-0.079
13.4725,-0.076
13.475,-0.068
13.4775,-0.059
13.48,-0.051
13.4825,-0.044
13.485,-0.039
13.4875,-0.038
13.49,-0.038
13.4925,-0.039
13.495,-0.039
13.4975,-0.037
13.5,-0.033
13.5025,-0.028
13.505,-0.025
13.5075,-0.023
13.51,-0.025
13.5125,-0.029
13.515,-0.033
13.5175,-0.036
13.52,-0.037
13.5225,-0.034
13.525,-0.029
13.5275,-0.023
13.53,-0.018
13.5325,-0.014
13.535,-0.013
13.5375,-0.013
13.54,-0.015
13.5425,-0.016
13.545,-0.016
13.5475,-0.014
13.55,-0.011
13.5525,-0.007
13.555,-0.003
13.5575,0
13.56,0.001
13.5625,0.002
13.565,0.001
13.5675,0
13.57,0
13.5725,0.001
13.575,0.002
13.5775,0.005
13.58,0.009
13.5825,0.012
13.585,0.016
13.5875,0.019
13.59,0.022
13.5925,0.024
13.595,0.026
13.5975,0.028
13.6,0.031
13.6025,0.034
13.605,0.037
13.6075,0.041
13.61,0.045
13.6125,0.049
13.615,0.053
13.6175,0.057
13.62,0.06
13.6225,0.062
13.625,0.063
13.6275,0.064
13.63,0.066
13.6325,0.07
13.635,0.075
13.6375,0.082
13.64,0.089
13.6425,0.097
13.645,0.104
13.6475,0.111
13.65,0.119
13.6525,0.128
13.655,0.136
13.6575,0.145
13.66,0.153
13.6625,0.16
13.665,0.166
13.6675,0.171
13.67,0.176
13.6725,0.182
13.675,0.188
13.6775,0.194
13.68,0.201
13.6825,0.208
13.685,0.215
13.6875,0.222
13.69,0.228
13.6925,0.235
13.695,0.241
13.6975,0.247
13.7,0.253
13.7025,0.258
13.705,0.262
13.7075,0.267
13.71,0.271
13.7125,0.274
13.715,0.277
13.7175,0.278
13.72,0.277
13.7225,0.274
13.725,0.268
13.7275,0.26
13.73,0.249
13.7325,0.238
13.735,0.226
13.7375,0.214
13.74,0.203
13.7425,0.192
13.745,0.181
13.7475,0.169
13.75,0.157
13.7525,0.144
13.755,0.13
13.7575,0.115
13.76,0.1
13.7625,0.085
13.765,0.071
13.7675,0.059
13.77,0.048
13.7725,0.039
13.775,0.03
13.7775,0.022
13.78,0.014
13.7825,0.006
13.785,-0.002
13.7875,-0.009
13.79,-0.016
13.7925,-0.022
13.795,-0.028
13.7975,-0.032
13.8,-0.036
13.8025,-0.039
13.805,-0.041
13.8075,-0.043
13.81,-0.043
13.8125,-0.044
13.815,-0.045
13.8175,-0.046
13.82,-0.048
13.8225,-0.05
13.825,-0.051
13.8275,-0.051
13.83,-0.05
13.8325,-0.049
13.835,-0.048
13.8375,-0.048
13.84,-0.049
13.8425,-0.05
13.845,-0.051
13.8475,-0.053
13.85,-0.055
13.8525,-0.056
13.855,-0.056
13.8575,-0.056
13.86,-0.055
13.8625,-0.053
13.865,-0.051
13.8675,-0.05
13.87,-0.05
13.8725,-0.05
13.875,-0.051
13.8775,-0.052
13.88,-0.053
13.8825,-0.053
13.885,-0.054
13.8875,-0.055
13.89,-0.056
13.8925,-0.056
13.895,-0.057
13.8975,-0.056
13.9,-0.055
13.9025,-0.054
13.905,-0.052
13.9075,-0.052
13.91,-0.052
13.9125,-0.053
13.915,-0.054
13.9175,-0.055
13.92,-0.056
13.9225,-0.056
13.925,-0.056
13.9275,-0.055
13.93,-0.055
13.9325,-0.056
13.935,-0.056
13.9375,-0.057
13.94,-0.057
13.9425,-0.056
13.945,-0.055
13.9475,-0.054
13.95,-0.053
13.9525,-0.053
13.955,-0.052
13.9575,-0.052
13.96,-0.052
13.9625,-0.053
13.965,-0.053
13.9675,-0.054
13.97,-0.055
13.9725,-0.056
13.975,-0.057
13.9775,-0.057
13.98,-0.058
13.9825,-0.058
13.985,-0.057
13.9875,-0.055
13.99,-0.053
13.9925,-0.051
13.995,-0.048
13.9975,-0.047
14,-0.047
14.0025,-0.048
14.005,-0.051
14.0075,-0.054
14.01,-0.058
14.0125,-0.06
14.015,-0.061
14.0175,-0.062
14.02,-0.061
14.0225,-0.061
14.025,-0.06
14.0275,-0.06
14.03,-0.059
14.0325,-0.058
14.035,-0.057
14.0375,-0.056
14.04,-0.055
14.0425,-0.055
14.045,-0.054
14.0475,-0.054
14.05,-0.054
14.0525,-0.054
14.055,-0.054
14.0575,-0.054
14.06,-0.054
14.0625,-0.055
14.065,-0.055
14.0675,-0.056
14.07,-0.056
14.0725,-0.056
14.075,-0.055
14.0775,-0.054
14.08,-0.053
14.0825,-0.051
14.085,-0.049
14.0875,-0.047
14.09,-0.046
14.0925,-0.047
14.095,-0.048
14.0975,-0.051
14.1,-0.053
14.1025,-0.054
14.105,-0.053
14.1075,-0.05
14.11,-0.046
14.1125,-0.041
14.115,-0.037
14.1175,-0.033
14.12,-0.03
14.1225,-0.027
14.125,-0.025
14.1275,-0.023
14.13,-0.022
14.1325,-0.02
14.135,-0.019
14.1375,-0.019
14.14,-0.017
14.1425,-0.014
14.145,-0.01
14.1475,-0.003
14.15,0.005
14.1525,0.013
14.155,0.021
14.1575,0.026
14.16,0.028
14.1625,0.029
14.165,0.028
14.1675,0.028
14.17,0.029
14.1725,0.032
14.175,0.036
14.1775,0.04
14.18,0.044
14.1825,0.046
14.185,0.045
14.1875,0.043
14.19,0.039
14.1925,0.033
14.195,0.025
14.1975,0.015
14.2,0.004
14.2025,-0.009
14.205,-0.021
14.2075,-0.032
14.21,-0.042
14.2125,-0.05
14.215,-0.056
14.2175,-0.061
14.22,-0.065
14.2225,-0.068
14.225,-0.069
14.2275,-0.07
14.23,-0.069
14.2325,-0.068
14.235,-0.068
14.2375,-0.069
14.24,-0.073
14.2425,-0.077
14.245,-0.081
14.2475,-0.084
14.25,-0.084
14.2525,-0.083
14.255,-0.079
14.2575,-0.075
14.26,-0.073
14.2625,-0.072
14.265,-0.074
14.2675,-0.078
14.27,-0.083
14.2725,-0.087
14.275,-0.089
14.2775,-0.088
14.28,-0.084
14.2825,-0.078
14.285,-0.072
14.2875,-0.069
14.29,-0.069
14.2925,-0.075
14.295,-0.084
14.2975,-0.096
14.3,-0.109
14.3025,-0.12
14.305,-0.127
14.3075,-0.127
14.31,-0.12
14.3125,-0.102
14.315,-0.073
14.3175,-0.029
14.32,0.032
14.3225,0.11
14.325,0.203
14.3275,0.307
14.33,0.415
14.3325,0.518
14.335,0.607
14.3375,0.675
14.34,0.712
14.3425,0.712
14.345,0.671
14.3475,0.585
14.35,0.456
14.3525,0.294
14.355,0.113
14.3575,-0.068
14.36,-0.227
14.3625,-0.351
14.365,-0.431
14.3675,-0.467
14.37,-0.468
14.3725,-0.446
14.375,-0.413
14.3775,-0.378
14.38,-0.347
14.3825,-0.323
14.385,-0.306
14.3875,-0.292
14.39,-0.281
14.3925,-0.269
14.395,-0.254
14.3975,-0.234
14.4,-0.208
14.4025,-0.177
14.405,-0.145
14.4075,-0.115
14.41,-0.09
14.4125,-0.073
14.415,-0.065
14.4175,-0.065
14.42,-0.068
14.4225,-0.072
14.425,-0.073
14.4275,-0.07
14.43,-0.065
14.4325,-0.057
14.435,-0.05
14.4375,-0.045
14.44,-0.044
14.4425,-0.044
14.445,-0.046
14.4475,-0.047
14.45,-0.046
14.4525,-0.043
14.455,-0.038
14.4575,-0.033
14.46,-0.028
14.4625,-0.024
14.465,-0.022
14.4675,-0.022
14.47,-0.024
14.4725,-0.026
14.475,-0.027
14.4775,-0.027
14.48,-0.025
14.4825,-0.022
14.485,-0.02
14.4875,-0.017
14.49,-0.016
14.4925,-0.015
14.495,-0.015
14.4975,-0.016
14.5,-0.015
14.5025,-0.014
14.505,-0.011
14.5075,-0.008
14.51,-0.004
14.5125,0
14.515,0.002
14.5175,0.004
14.52,0.005
14.5225,0.006
14.525,0.006
14.5275,0.007
14.53,0.009
14.5325,0.01
14.535,0.012
14.5375,0.014
14.54,0.016
14.5425,0.018
14.545,0.02
14.5475,0.023
14.55,0.027
14.5525,0.031
14.555,0.035
14.5575,0.038
14.56,0.041
14.5625,0.043
14.565,0.044
14.5675,0.045
14.57,0.046
14.5725,0.048
14.575,0.051
14.5775,0.054
14.58,0.058
14.5825,0.064
14.585,0.07
14.5875,0.078
14.59,0.085
14.5925,0.092
14.595,0.098
14.5975,0.103
14.6,0.108
14.6025,0.111
14.605,0.115
14.6075,0.12
14.61,0.125
14.6125,0.131
14.615,0.138
14.6175,0.146
14.62,0.154
14.6225,0.163
14.625,0.171
14.6275,0.179
14.63,0.187
14.6325,0.195
14.635,0.204
14.6375,0.212
14.64,0.22
14.6425,0.227
14.645,0.234
14.6475,0.239
14.65,0.244
14.6525,0.248
14.655,0.252
14.6575,0.256
14.66,0.26
14.6625,0.264
14.665,0.268
14.6675,0.271
14.67,0.274
14.6725,0.276
14.675,0.277
14.6775,0.277
14.68,0.274
14.6825,0.268
14.685,0.261
14.6875,0.252
14.69,0.241
14.6925,0.23
14.695,0.218
14.6975,0.205
14.7,0.193
14.7025,0.179
14.705,0.165
14.7075,0.149
14.71,0.133
14.7125,0.116
14.715,0.1
14.7175,0.085
14.72,0.072
14.7225,0.06
14.725,0.049
14.7275,0.039
14.73,0.03
14.7325,0.021
14.735,0.012
14.7375,0.004
14.74,-0.004
14.7425,-0.012
14.745,-0.019
14.7475,-0.025
14.75,-0.03
14.7525,-0.034
14.755,-0.038
14.7575,-0.041
14.76,-0.044
14.7625,-0.046
14.765,-0.048
14.7675,-0.05
14.77,-0.052
14.7725,-0.054
14.775,-0.055
14.7775,-0.056
14.78,-0.056
14.7825,-0.056
14.785,-0.055
14.7875,-0.055
14.79,-0.055
14.7925,-0.056
14.795,-0.057
14.7975,-0.058
14.8,-0.058
14.8025,-0.059
14.805,-0.06
14.8075,-0.061
14.81,-0.063
14.8125,-0.065
14.815,-0.066
14.8175,-0.067
14.82,-0.067
14.8225,-0.066
14.825,-0.065
14.8275,-0.064
14.83,-0.063
14.8325,-0.062
14.835,-0.062
14.8375,-0.061
14.84,-0.061
14.8425,-0.062
14.845,-0.063
14.8475,-0.064
14.85,-0.066
14.8525,-0.068
14.855,-0.068
14.8575,-0.068
14.86,-0.066
14.8625,-0.064
14.865,-0.062
14.8675,-0.061
14.87,-0.059
14.8725,-0.058
14.875,-0.058
14.8775,-0.057
14.88,-0.057
14.8825,-0.057
14.885,-0.056
14.8875,-0.056
14.89,-0.056
14.8925,-0.055
14.895,-0.054
14.8975,-0.053
14.9,-0.053
14.9025,-0.053
14.905,-0.053
14.9075,-0.053
14.91,-0.053
14.9125,-0.052
14.915,-0.05
14.9175,-0.048
14.92,-0.047
14.9225,-0.046
14.925,-0.046
14.9275,-0.047
14.93,-0.048
14.9325,-0.049
14.935,-0.049
14.9375,-0.049
14.94,-0.049
14.9425,-0.049
14.945,-0.049
14.9475,-0.049
14.95,-0.049
14.9525,-0.049
14.955,-0.049
14.9575,-0.05
14.96,-0.051
14.9625,-0.053
14.965,-0.054
14.9675,-0.054
14.97,-0.054
14.9725,-0.053
14.975,-0.053
14.9775,-0.053
14.98,-0.053
14.9825,-0.054
14.985,-0.055
14.9875,-0.057
14.99,-0.058
14.9925,-0.058
14.995,-0.058
14.9975,-0.057
15,-0.055
15.0025,-0.054
15.005,-0.052
15.0075,-0.05
15.01,-0.049
15.0125,-0.047
15.015,-0.047
15.0175,-0.046
15.02,-0.046
15.0225,-0.045
15.025,-0.043
15.0275,-0.041
15.03,-0.038
15.0325,-0.035
15.035,-0.034
15.0375,-0.033
15.04,-0.033
15.0425,-0.034
15.045,-0.035
15.0475,-0.034
15.05,-0.032
15.0525,-0.028
15.055,-0.022
15.0575,-0.016
15.06,-0.01
15.0625,-0.004
15.065,0.001
15.0675,0.004
15.07,0.007
15.0725,0.009
15.075,0.012
15.0775,0.015
15.08,0.02
15.0825,0.026
15.085,0.032
15.0875,0.038
15.09,0.041
15.0925,0.042
15.095,0.039
15.0975,0.033
15.1,0.024
15.1025,0.014
15.105,0.003
15.1075,-0.008
15.11,-0.017
15.1125,-0.026
15.115,-0.032
15.1175,-0.038
15.12,-0.044
15.1225,-0.049
15.125,-0.055
15.1275,-0.061
15.13,-0.067
15.1325,-0.07
15.135,-0.072
15.1375,-0.073
15.14,-0.073
15.1425,-0.072
15.145,-0.072
15.1475,-0.073
15.15,-0.074
15.1525,-0.075
15.155,-0.075
15.1575,-0.075
15.16,-0.074
15.1625,-0.075
15.165,-0.076
15.1675,-0.078
15.17,-0.081
15.1725,-0.085
15.175,-0.087
15.1775,-0.087
15.18,-0.086
15.1825,-0.082
15.185,-0.078
15.1875,-0.073
15.19,-0.069
15.1925,-0.068
15.195,-0.071
15.1975,-0.078
15.2,-0.087
15.2025,-0.097
15.205,-0.108
15.2075,-0.116
15.21,-0.12
15.2125,-0.118
15.215,-0.11
15.2175,-0.092
15.22,-0.063
15.2225,-0.019
15.225,0.042
15.2275,0.12
15.23,0.215
15.2325,0.321
15.235,0.43
15.2375,0.535
15.24,0.624
15.2425,0.689
15.245,0.723
15.2475,0.72
15.25,0.674
15.2525,0.584
15.255,0.453
15.2575,0.289
15.26,0.11
15.2625,-0.065
15.265,-0.218
15.2675,-0.333
15.27,-0.404
15.2725,-0.435
15.275,-0.433
15.2775,-0.412
15.28,-0.382
15.2825,-0.352
15.285,-0.326
15.2875,-0.306
15.29,-0.291
15.2925,-0.279
15.295,-0.268
15.2975,-0.255
15.3,-0.238
15.3025,-0.216
15.305,-0.188
15.3075,-0.156
15.31,-0.123
15.3125,-0.094
15.315,-0.071
15.3175,-0.058
15.32,-0.054
15.3225,-0.056
15.325,-0.062
15.3275,-0.067
15.33,-0.068
15.3325,-0.065
15.335,-0.059
15.3375,-0.052
15.34,-0.046
15.3425,-0.042
15.345,-0.04
15.3475,-0.041
15.35,-0.042
15.3525,-0.042
15.355,-0.041
15.3575,-0.037
15.36,-0.033
15.3625,-0.027
15.365,-0.022
15.3675,-0.017
15.37,-0.015
15.3725,-0.015
15.375,-0.016
15.3775,-0.019
15.38,-0.02
15.3825,-0.02
15.385,-0.018
15.3875,-0.015
15.39,-0.012
15.3925,-0.009
15.395,-0.007
15.3975,-0.007
15.4,-0.008
15.4025,-0.009
15.405,-0.009
15.4075,-0.008
15.41,-0.006
15.4125,-0.004
15.415,-0.001
15.4175,0
15.42,0.001
15.4225,0.002
15.425,0.002
15.4275,0.002
15.43,0.002
15.4325,0.003
15.435,0.004
15.4375,0.007
15.44,0.009
15.4425,0.013
15.445,0.017
15.4475,0.021
15.45,0.025
15.4525,0.029
15.455,0.032
15.4575,0.035
15.46,0.037
15.4625,0.039
15.465,0.041
15.4675,0.043
15.47,0.046
15.4725,0.048
15.475,0.051
15.4775,0.053
15.48,0.056
15.4825,0.059
15.485,0.063
15.4875,0.068
15.49,0.074
15.4925,0.081
15.495,0.088
15.4975,0.095
15.5,0.1
15.5025,0.105
15.505,0.11
15.5075,0.115
15.51,0.12
15.5125,0.126
15.515,0.132
15.5175,0.138
15.52,0.144
15.5225,0.15
15.525,0.156
15.5275,0.162
15.53,0.17
15.5325,0.178
15.535,0.186
15.5375,0.194
15.54,0.201
15.5425,0.208
15.545,0.215
15.5475,0.221
15.55,0.228
15.5525,0.235
15.555,0.242
15.5575,0.249
15.56,0.254
15.5625,0.259
15.565,0.263
15.5675,0.266
15.57,0.268
15.5725,0.27
15.575,0.271
15.5775,0.271
15.58,0.269
15.5825,0.267
15.585,0.262
15.5875,0.255
15.59,0.246
15.5925,0.236
15.595,0.225
15.5975,0.213
15.6,0.201
15.6025,0.188
15.605,0.174
15.6075,0.16
15.61,0.144
15.6125,0.127
15.615,0.11
15.6175,0.093
15.62,0.078
15.6225,0.066
15.625,0.055
15.6275,0.046
15.63,0.037
15.6325,0.028
15.635,0.019
15.6375,0.009
15.64,0.001
15.6425,-0.007
15.645,-0.013
15.6475,-0.018
15.65,-0.023
15.6525,-0.029
15.655,-0.034
15.6575,-0.039
15.66,-0.043
15.6625,-0.045
15.665,-0.046
15.6675,-0.046
15.67,-0.047
15.6725,-0.049
15.675,-0.052
15.6775,-0.055
15.68,-0.058
15.6825,-0.059
15.685,-0.059
15.6875,-0.058
15.69,-0.057
15.6925,-0.056
15.695,-0.056
15.6975,-0.057
15.7,-0.058
15.7025,-0.06
15.705,-0.062
15.7075,-0.064
15.71,-0.066
15.7125,-0.068
15.715,-0.068
15.7175,-0.069
15.72,-0.068
15.7225,-0.067
15.725,-0.066
15.7275,-0.064
15.73,-0.062
15.7325,-0.06
15.735,-0.059
15.7375,-0.058
15.74,-0.059
15.7425,-0.06
15.745,-0.061
15.7475,-0.062
15.75,-0.063
15.7525,-0.063
15.755,-0.064
15.7575,-0.065
15.76,-0.066
15.7625,-0.066
15.765,-0.067
15.7675,-0.066
15.77,-0.065
15.7725,-0.064
15.775,-0.062
15.7775,-0.059
15.78,-0.057
15.7825,-0.056
15.785,-0.055
15.7875,-0.055
15.79,-0.055
15.7925,-0.056
15.795,-0.058
15.7975,-0.059
15.8,-0.059
15.8025,-0.06
15.805,-0.06
15.8075,-0.06
15.81,-0.06
15.8125,-0.06
15.815,-0.06
15.8175,-0.059
15.82,-0.057
15.8225,-0.055
15.825,-0.053
15.8275,-0.051
15.83,-0.05
15.8325,-0.05
15.835,-0.051
15.8375,-0.052
15.84,-0.052
15.8425,-0.054
15.845,-0.056
15.8475,-0.058
15.85,-0.06
15.8525,-0.062
15.855,-0.063
15.8575,-0.061
15.86,-0.059
15.8625,-0.057
15.865,-0.054
15.8675,-0.053
15.87,-0.053
15.8725,-0.053
15.875,-0.055
15.8775,-0.056
15.88,-0.057
15.8825,-0.057
15.885,-0.057
15.8875,-0.057
15.89,-0.057
15.8925,-0.056
15.895,-0.057
15.8975,-0.057
15.9,-0.058
15.9025,-0.06
15.905,-0.062
15.9075,-0.063
15.91,-0.064
15.9125,-0.063
15.915,-0.062
15.9175,-0.061
15.92,-0.059
15.9225,-0.057
15.925,-0.055
15.9275,-0.054
15.93,-0.054
15.9325,-0.053
15.935,-0.054
15.9375,-0.055
15.94,-0.056
15.9425,-0.058
15.945,-0.06
15.9475,-0.061
15.95,-0.061
15.9525,-0.06
15.955,-0.059
15.9575,-0.057
15.96,-0.055
15.9625,-0.055
15.965,-0.055
15.9675,-0.057
15.97,-0.059
15.9725,-0.06
15.975,-0.06
15.9775,-0.059
15.98,-0.056
15.9825,-0.051
15.985,-0.046
15.9875,-0.041
15.99,-0.036
15.9925,-0.031
15.995,-0.028
15.9975,-0.025
16,-0.023
16.0025,-0.023
16.005,-0.023
16.0075,-0.024
16.01,-0.024
16.0125,-0.023
16.015,-0.02
16.0175,-0.014
16.02,-0.008
16.0225,0
16.025,0.007
16.0275,0.013
16.03,0.016
16.0325,0.018
16.035,0.018
16.0375,0.017
16.04,0.018
16.0425,0.019
16.045,0.023
16.0475,0.028
16.05,0.033
16.0525,0.038
16.055,0.041
16.0575,0.042
16.06,0.04
16.0625,0.035
16.065,0.028
16.0675,0.019
16.07,0.009
16.0725,-0.001
16.075,-0.01
16.0775,-0.02
16.08,-0.029
16.0825,-0.039
16.085,-0.048
16.0875,-0.057
16.09,-0.065
16.0925,-0.07
16.095,-0.073
16.0975,-0.074
16.1,-0.072
16.1025,-0.07
16.105,-0.068
16.1075,-0.068
16.11,-0.07
16.1125,-0.074
16.115,-0.078
16.1175,-0.081
16.12,-0.083
16.1225,-0.082
16.125,-0.08
16.1275,-0.077
16.13,-0.075
16.1325,-0.073
16.135,-0.073
16.1375,-0.075
16.14,-0.078
16.1425,-0.082
16.145,-0.084
16.1475,-0.084
16.15,-0.083
16.1525,-0.081
16.155,-0.078
16.1575,-0.076
16.16,-0.076
16.1625,-0.08
16.165,-0.086
16.1675,-0.095
16.17,-0.105
16.1725,-0.115
16.175,-0.121
16.1775,-0.122
16.18,-0.115
16.1825,-0.098
16.185,-0.068
16.1875,-0.023
16.19,0.039
16.1925,0.118
16.195,0.214
16.1975,0.319
16.2,0.428
16.2025,0.53
16.205,0.618
16.2075,0.682
16.21,0.717
16.2125,0.717
16.215,0.677
16.2175,0.594
16.22,0.468
16.2225,0.309
16.225,0.129
16.2275,-0.051
16.23,-0.211
16.2325,-0.337
16.235,-0.419
16.2375,-0.459
16.24,-0.465
16.2425,-0.448
16.245,-0.419
16.2475,-0.387
16.25,-0.356
16.2525,-0.329
16.255,-0.305
16.2575,-0.286
16.26,-0.269
16.2625,-0.253
16.265,-0.235
16.2675,-0.214
16.27,-0.188
16.2725,-0.158
16.275,-0.127
16.2775,-0.099
16.28,-0.077
16.2825,-0.063
16.285,-0.059
16.2875,-0.061
16.29,-0.065
16.2925,-0.07
16.295,-0.071
16.2975,-0.068
16.3,-0.061
16.3025,-0.053
16.305,-0.046
16.3075,-0.041
16.31,-0.039
16.3125,-0.039
16.315,-0.041
16.3175,-0.043
16.32,-0.043
16.3225,-0.042
16.325,-0.038
16.3275,-0.033
16.33,-0.028
16.3325,-0.024
16.335,-0.022
16.3375,-0.022
16.34,-0.023
16.3425,-0.025
16.345,-0.026
16.3475,-0.026
16.35,-0.024
16.3525,-0.02
16.355,-0.016
16.3575,-0.013
16.36,-0.01
16.3625,-0.01
16.365,-0.011
16.3675,-0.013
16.37,-0.014
16.3725,-0.015
16.375,-0.015
16.3775,-0.012
16.38,-0.009
16.3825,-0.005
16.385,-0.002
16.3875,0
16.39,0
16.3925,0
16.395,0
16.3975,0
16.4,0.001
16.4025,0.003
16.405,0.005
16.4075,0.009
16.41,0.012
16.4125,0.014
16.415,0.017
16.4175,0.019
16.42,0.021
16.4225,0.023
16.425,0.025
16.4275,0.028
16.43,0.03
16.4325,0.031
16.435,0.033
16.4375,0.035
16.44,0.037
16.4425,0.041
16.445,0.046
16.4475,0.052
16.45,0.058
16.4525,0.064
16.455,0.069
16.4575,0.073
16.46,0.077
16.4625,0.081
16.465,0.085
16.4675,0.091
16.47,0.098
16.4725,0.105
16.475,0.113
16.4775,0.12
16.48,0.126
16.4825,0.131
16.485,0.136
16.4875,0.142
16.49,0.148
16.4925,0.155
16.495,0.163
16.4975,0.171
16.5,0.179
16.5025,0.187
16.505,0.196
16.5075,0.205
16.51,0.213
16.5125,0.221
16.515,0.229
16.5175,0.235
16.52,0.241
16.5225,0.245
16.525,0.249
16.5275,0.252
16.53,0.256
16.5325,0.259
16.535,0.263
16.5375,0.267
16.54,0.27
16.5425,0.273
16.545,0.274
16.5475,0.273
16.55,0.269
16.5525,0.264
16.555,0.256
16.5575,0.246
16.56,0.235
16.5625,0.224
16.565,0.212
16.5675,0.199
16.57,0.185
16.5725,0.17
16.575,0.155
16.5775,0.14
16.58,0.125
16.5825,0.111
16.585,0.098
16.5875,0.086
16.59,0.074
16.5925,0.062
16.595,0.049
16.5975,0.037
16.6,0.026
16.6025,0.017
16.605,0.009
16.6075,0.003
16.61,-0.003
16.6125,-0.009
16.615,-0.014
16.6175,-0.019
16.62,-0.024
16.6225,-0.028
16.625,-0.031
16.6275,-0.033
16.63,-0.036
16.6325,-0.038
16.635,-0.041
16.6375,-0.043
16.64,-0.046
16.6425,-0.048
16.645,-0.05
16.6475,-0.052
16.65,-0.053
16.6525,-0.053
16.655,-0.052
16.6575,-0.052
16.66,-0.051
16.6625,-0.051
16.665,-0.051
16.6675,-0.051
16.67,-0.051
16.6725,-0.051
16.675,-0.05
16.6775,-0.049
16.68,-0.048
16.6825,-0.048
16.685,-0.048
16.6875,-0.049
16.69,-0.05
16.6925,-0.051
16.695,-0.052
16.6975,-0.052
16.7,-0.053
16.7025,-0.053
16.705,-0.054
16.7075,-0.054
16.71,-0.055
16.7125,-0.055
16.715,-0.055
16.7175,-0.054
16.72,-0.053
16.7225,-0.052
16.725,-0.051
16.7275,-0.05
16.73,-0.049
16.7325,-0.05
16.735,-0.051
16.7375,-0.052
16.74,-0.054
16.7425,-0.054
16.745,-0.055
16.7475,-0.054
16.75,-0.054
16.7525,-0.052
16.755,-0.051
16.7575,-0.049
16.76,-0.047
16.7625,-0.045
16.765,-0.045
16.7675,-0.045
16.77,-0.045
16.7725,-0.046
16.775,-0.047
16.7775,-0.048
16.78,-0.047
16.7825,-0.047
16.785,-0.045
16.7875,-0.044
16.79,-0.043
16.7925,-0.042
16.795,-0.042
16.7975,-0.043
16.8,-0.045
16.8025,-0.046
16.805,-0.048
16.8075,-0.048
16.81,-0.048
16.8125,-0.047
16.815,-0.045
16.8175,-0.044
16.82,-0.043
16.8225,-0.044
16.825,-0.047
16.8275,-0.05
16.83,-0.054
16.8325,-0.057
16.835,-0.059
16.8375,-0.059
16.84,-0.058
16.8425,-0.056
16.845,-0.053
16.8475,-0.051
16.85,-0.049
16.8525,-0.048
16.855,-0.048
16.8575,-0.048
16.86,-0.048
16.8625,-0.048
16.865,-0.047
16.8675,-0.046
16.87,-0.045
16.8725,-0.043
16.875,-0.042
16.8775,-0.041
16.88,-0.04
16.8825,-0.041
16.885,-0.041
16.8875,-0.043
16.89,-0.045
16.8925,-0.047
16.895,-0.05
16.8975,-0.051
16.9,-0.052
16.9025,-0.052
16.905,-0.051
16.9075,-0.05
16.91,-0.049
16.9125,-0.049
16.915,-0.05
16.9175,-0.051
16.92,-0.053
16.9225,-0.055
16.925,-0.056
16.9275,-0.056
16.93,-0.055
16.9325,-0.054
16.935,-0.053
16.9375,-0.053
16.94,-0.053
16.9425,-0.054
16.945,-0.055
16.9475,-0.056
16.95,-0.054
16.9525,-0.052
16.955,-0.049
16.9575,-0.045
16.96,-0.041
16.9625,-0.037
16.965,-0.033
16.9675,-0.029
16.97,-0.025
16.9725,-0.022
16.975,-0.019
16.9775,-0.017
16.98,-0.015
16.9825,-0.013
16.985,-0.011
16.9875,-0.009
16.99,-0.006
16.9925,-0.002
16.995,0.003
16.9975,0.009
17,0.015
17.0025,0.021
17.005,0.026
17.0075,0.03
17.01,0.032
17.0125,0.032
17.015,0.033
17.0175,0.034
17.02,0.035
17.0225,0.038
17.025,0.04
17.0275,0.04
17.03,0.039
17.0325,0.036
17.035,0.032
17.0375,0.027
17.04,0.023
17.0425,0.018
17.045,0.013
17.0475,0.006
17.05,-0.003
17.0525,-0.014
17.055,-0.027
17.0575,-0.041
17.06,-0.053
17.0625,-0.063
17.065,-0.07
17.0675,-0.073
17.07,-0.072
17.0725,-0.07
17.075,-0.066
17.0775,-0.062
17.08,-0.06
17.0825,-0.061
17.085,-0.064
17.0875,-0.067
17.09,-0.072
17.0925,-0.075
17.095,-0.076
17.0975,-0.075
17.1,-0.073
17.1025,-0.071
17.105,-0.069
17.1075,-0.07
17.11,-0.072
17.1125,-0.076
17.115,-0.08
17.1175,-0.082
17.12,-0.082
17.1225,-0.081
17.125,-0.077
17.1275,-0.074
17.13,-0.071
17.1325,-0.071
17.135,-0.075
17.1375,-0.082
17.14,-0.092
17.1425,-0.104
17.145,-0.115
17.1475,-0.123
17.15,-0.124
17.1525,-0.117
17.155,-0.099
17.1575,-0.068
17.16,-0.021
17.1625,0.042
17.165,0.124
17.1675,0.221
17.17,0.328
17.1725,0.439
17.175,0.543
17.1775,0.632
17.18,0.698
17.1825,0.734
17.185,0.735
17.1875,0.696
17.19,0.612
17.1925,0.486
17.195,0.325
17.1975,0.142
17.2,-0.042
17.2025,-0.207
17.205,-0.337
17.2075,-0.423
17.21,-0.466
17.2125,-0.473
17.215,-0.456
17.2175,-0.426
17.22,-0.393
17.2225,-0.361
17.225,-0.332
17.2275,-0.309
17.23,-0.289
17.2325,-0.271
17.235,-0.255
17.2375,-0.236
17.24,-0.213
17.2425,-0.186
17.245,-0.155
17.2475,-0.123
17.25,-0.094
17.2525,-0.072
17.255,-0.059
17.2575,-0.054
17.26,-0.056
17.2625,-0.061
17.265,-0.065
17.2675,-0.066
17.27,-0.063
17.2725,-0.057
17.275,-0.049
17.2775,-0.042
17.28,-0.037
17.2825,-0.035
17.285,-0.036
17.2875,-0.039
17.29,-0.041
17.2925,-0.042
17.295,-0.039
17.2975,-0.035
17.3,-0.028
17.3025,-0.022
17.305,-0.018
17.3075,-0.016
17.31,-0.018
17.3125,-0.021
17.315,-0.025
17.3175,-0.028
17.32,-0.029
17.3225,-0.027
17.325,-0.024
17.3275,-0.02
17.33,-0.017
17.3325,-0.013
17.335,-0.011
17.3375,-0.009
17.34,-0.008
17.3425,-0.007
17.345,-0.006
17.3475,-0.005
17.35,-0.003
17.3525,-0.001
17.355,0.003
17.3575,0.006
17.36,0.008
17.3625,0.009
17.365,0.01
17.3675,0.011
17.37,0.011
17.3725,0.013
17.375,0.015
17.3775,0.018
17.38,0.021
17.3825,0.024
17.385,0.026
17.3875,0.027
17.39,0.028
17.3925,0.029
17.395,0.031
17.3975,0.033
17.4,0.037
17.4025,0.041
17.405,0.046
17.4075,0.05
17.41,0.054
17.4125,0.056
17.415,0.057
17.4175,0.058
17.42,0.059
17.4225,0.061
17.425,0.065
17.4275,0.07
17.43,0.075
17.4325,0.081
17.435,0.087
17.4375,0.092
17.44,0.099
17.4425,0.105
17.445,0.111
17.4475,0.118
17.45,0.125
17.4525,0.131
17.455,0.137
17.4575,0.144
17.46,0.15
17.4625,0.156
17.465,0.163
17.4675,0.169
17.47,0.176
17.4725,0.184
17.475,0.191
17.4775,0.198
17.48,0.205
17.4825,0.212
17.485,0.219
17.4875,0.225
17.49,0.232
17.4925,0.239
17.495,0.245
17.4975,0.25
17.5,0.255
17.5025,0.259
17.505,0.263
17.5075,0.267
17.51,0.272
17.5125,0.276
17.515,0.278
17.5175,0.279
17.52,0.277
17.5225,0.272
17.525,0.264
17.5275,0.254
17.53,0.243
17.5325,0.232
17.535,0.221
17.5375,0.21
17.54,0.199
17.5425,0.188
17.545,0.177
17.5475,0.164
17.55,0.151
17.5525,0.136
17.555,0.121
17.5575,0.105
17.56,0.091
17.5625,0.076
17.565,0.063
17.5675,0.051
17.57,0.04
17.5725,0.03
17.575,0.02
17.5775,0.011
17.58,0.003
17.5825,-0.005
17.585,-0.012
17.5875,-0.019
17.59,-0.026
17.5925,-0.031
17.595,-0.036
17.5975,-0.04
17.6,-0.043
17.6025,-0.045
17.605,-0.046
17.6075,-0.046
17.61,-0.046
17.6125,-0.047
17.615,-0.048
17.6175,-0.05
17.62,-0.052
17.6225,-0.054
17.625,-0.056
17.6275,-0.058
17.63,-0.059
17.6325,-0.06
17.635,-0.062
17.6375,-0.063
17.64,-0.064
17.6425,-0.065
17.645,-0.065
17.6475,-0.064
17.65,-0.062
17.6525,-0.061
17.655,-0.06
17.6575,-0.059
17.66,-0.059
17.6625,-0.059
17.665,-0.06
17.6675,-0.061
17.67,-0.062
17.6725,-0.063
17.675,-0.063
17.6775,-0.063
17.68,-0.062
17.6825,-0.062
17.685,-0.061
17.6875,-0.061
17.69,-0.061
17.6925,-0.06
17.695,-0.059
17.6975,-0.057
17.7,-0.054
17.7025,-0.053
17.705,-0.052
17.7075,-0.052
17.71,-0.053
17.7125,-0.054
17.715,-0.055
17.7175,-0.055
17.72,-0.055
17.7225,-0.054
17.725,-0.054
17.7275,-0.053
17.73,-0.053
17.7325,-0.051
17.735,-0.049
17.7375,-0.047
17.74,-0.045
17.7425,-0.045
17.745,-0.047
17.7475,-0.05
17.75,-0.053
17.7525,-0.056
17.755,-0.058
17.7575,-0.058
17.76,-0.057
17.7625,-0.056
17.765,-0.056
17.7675,-0.055
17.77,-0.055
17.7725,-0.054
17.775,-0.054
17.7775,-0.054
17.78,-0.054
17.7825,-0.055
17.785,-0.056
17.7875,-0.056
17.79,-0.056
17.7925,-0.056
17.795,-0.055
17.7975,-0.054
17.8,-0.053
17.8025,-0.052
17.805,-0.051
17.8075,-0.051
17.81,-0.052
17.8125,-0.053
17.815,-0.054
17.8175,-0.056
17.82,-0.057
17.8225,-0.057
17.825,-0.057
17.8275,-0.055
17.83,-0.055
17.8325,-0.054
17.835,-0.055
17.8375,-0.057
17.84,-0.059
17.8425,-0.06
17.845,-0.061
17.8475,-0.06
17.85,-0.058
17.8525,-0.056
17.855,-0.054
17.8575,-0.052
17.86,-0.051
17.8625,-0.049
17.865,-0.048
17.8675,-0.047
17.87,-0.046
17.8725,-0.045
17.875,-0.044
17.8775,-0.044
17.88,-0.044
17.8825,-0.042
17.885,-0.04
17.8875,-0.036
17.89,-0.032
17.8925,-0.029
17.895,-0.027
17.8975,-0.026
17.9,-0.027
17.9025,-0.027
17.905,-0.028
17.9075,-0.027
17.91,-0.025
17.9125,-0.02
17.915,-0.015
17.9175,-0.008
17.92,-0.002
17.9225,0.003
17.925,0.008
17.9275,0.012
17.93,0.015
17.9325,0.018
17.935,0.02
17.9375,0.024
17.94,0.028
17.9425,0.033
17.945,0.039
17.9475,0.044
17.95,0.046
17.9525,0.046
17.955,0.041
17.9575,0.032
17.96,0.021
17.9625,0.009
17.965,-0.004
17.9675,-0.015
17.97,-0.025
17.9725,-0.035
17.975,-0.044
17.9775,-0.052
17.98,-0.059
17.9825,-0.064
17.985,-0.067
17.9875,-0.069
17.99,-0.071
17.9925,-0.073
17.995,-0.076
17.9975,-0.079
18,-0.082
18.0025,-0.085
18.005,-0.086
18.0075,-0.087
18.01,-0.086
18.0125,-0.085
18.015,-0.082
18.0175,-0.08
18.02,-0.078
18.0225,-0.078
18.025,-0.08
18.0275,-0.083
18.03,-0.087
18.0325,-0.09
18.035,-0.091
18.0375,-0.09
18.04,-0.085
18.0425,-0.079
18.045,-0.074
18.0475,-0.071
18.05,-0.072
18.0525,-0.076
18.055,-0.083
18.0575,-0.092
18.06,-0.102
18.0625,-0.11
18.065,-0.117
18.0675,-0.121
18.07,-0.121
18.0725,-0.114
18.075,-0.097
18.0775,-0.066
18.08,-0.019
18.0825,0.047
18.085,0.132
18.0875,0.233
18.09,0.343
18.0925,0.453
18.095,0.553
18.0975,0.635
18.1,0.689
18.1025,0.71
18.105,0.691
18.1075,0.629
18.11,0.524
18.1125,0.38
18.115,0.208
18.1175,0.026
18.12,-0.147
18.1225,-0.293
18.125,-0.398
18.1275,-0.458
18.13,-0.478
18.1325,-0.468
18.135,-0.441
18.1375,-0.406
18.14,-0.371
18.1425,-0.34
18.145,-0.315
18.1475,-0.296
18.15,-0.282
18.1525,-0.272
18.155,-0.263
18.1575,-0.253
18.16,-0.237
18.1625,-0.214
18.165,-0.185
18.1675,-0.152
18.17,-0.121
18.1725,-0.095
18.175,-0.078
18.1775,-0.069
18.18,-0.067
18.1825,-0.069
18.185,-0.071
18.1875,-0.071
18.19,-0.069
18.1925,-0.066
18.195,-0.061
18.1975,-0.056
18.2,-0.051
18.2025,-0.047
18.205,-0.044
18.2075,-0.043
18.21,-0.043
18.2125,-0.044
18.215,-0.044
18.2175,-0.045
18.22,-0.044
18.2225,-0.041
18.225,-0.038
18.2275,-0.035
18.23,-0.032
18.2325,-0.029
18.235,-0.027
18.2375,-0.024
18.24,-0.021
18.2425,-0.018
18.245,-0.015
18.2475,-0.013
18.25,-0.012
18.2525,-0.013
18.255,-0.014
18.2575,-0.015
18.26,-0.017
18.2625,-0.017
18.265,-0.016
18.2675,-0.012
18.27,-0.007
18.2725,-0.001
18.275,0.003
18.2775,0.006
18.28,0.005
18.2825,0.002
18.285,-0.001
18.2875,-0.004
18.29,-0.004
18.2925,-0.002
18.295,0.002
18.2975,0.007
18.3,0.012
18.3025,0.015
18.305,0.018
18.3075,0.021
18.31,0.023
18.3125,0.026
18.315,0.029
18.3175,0.032
18.32,0.034
18.3225,0.036
18.325,0.037
18.3275,0.038
18.33,0.04
18.3325,0.043
18.335,0.048
18.3375,0.053
18.34,0.059
18.3425,0.065
18.345,0.07
18.3475,0.075
18.35,0.079
18.3525,0.083
18.355,0.086
18.3575,0.09
18.36,0.095
18.3625,0.101
18.365,0.108
18.3675,0.115
18.37,0.123
18.3725,0.131
18.375,0.14
18.3775,0.148
18.38,0.156
18.3825,0.165
18.385,0.173
18.3875,0.18
18.39,0.186
18.3925,0.191
18.395,0.196
18.3975,0.201
18.4,0.208
18.4025,0.217
18.405,0.227
18.4075,0.238
18.41,0.248
18.4125,0.256
18.415,0.263
18.4175,0.268
18.42,0.271
18.4225,0.274
18.425,0.277
18.4275,0.279
18.43,0.28
18.4325,0.281
18.435,0.282
18.4375,0.281
18.44,0.279
18.4425,0.274
18.445,0.267
18.4475,0.258
18.45,0.247
18.4525,0.235
18.455,0.223
18.4575,0.21
18.46,0.197
18.4625,0.184
18.465,0.17
18.4675,0.157
18.47,0.145
18.4725,0.133
18.475,0.121
18.4775,0.107
18.48,0.091
18.4825,0.073
18.485,0.055
18.4875,0.036
18.49,0.02
18.4925,0.007
18.495,-0.003
18.4975,-0.01
18.5,-0.015
18.5025,-0.02
18.505,-0.024
18.5075,-0.028
18.51,-0.032
18.5125,-0.036
18.515,-0.04
18.5175,-0.044
18.52,-0.049
18.5225,-0.053
18.525,-0.056
18.5275,-0.057
18.53,-0.056
18.5325,-0.053
18.535,-0.05
18.5375,-0.049
18.54,-0.049
18.5425,-0.052
18.545,-0.057
18.5475,-0.061
18.55,-0.065
18.5525,-0.068
18.555,-0.07
18.5575,-0.072
18.56,-0.074
18.5625,-0.073
18.565,-0.071
18.5675,-0.066
18.57,-0.061
18.5725,-0.057
18.575,-0.055
18.5775,-0.057
18.58,-0.061
18.5825,-0.066
18.585,-0.07
18.5875,-0.071
18.59,-0.072
18.5925,-0.071
18.595,-0.069
18.5975,-0.068
18.6,-0.065
18.6025,-0.061
18.605,-0.057
18.6075,-0.052
18.61,-0.05
18.6125,-0.05
18.615,-0.053
18.6175,-0.058
18.62,-0.063
18.6225,-0.066
18.625,-0.067
18.6275,-0.066
18.63,-0.063
18.6325,-0.059
18.635,-0.056
18.6375,-0.054
18.64,-0.053
18.6425,-0.053
18.645,-0.054
18.6475,-0.055
18.65,-0.056
18.6525,-0.055
18.655,-0.054
18.6575,-0.053
18.66,-0.052
18.6625,-0.047
18.665,-0.047
18.6675,-0.049
18.67,-0.051
18.6725,-0.052
18.675,-0.05
18.6775,-0.047
18.68,-0.042
18.6825,-0.037
18.685,-0.032
18.6875,-0.03
18.69,-0.031
18.6925,-0.033
18.695,-0.035
18.6975,-0.035
18.7,-0.033
18.7025,-0.03
18.705,-0.025
18.7075,-0.021
18.71,-0.018
18.7125,-0.018
18.715,-0.019
18.7175,-0.022
18.72,-0.024
18.7225,-0.025
18.725,-0.025
18.7275,-0.022
18.73,-0.019
18.7325,-0.014
18.735,-0.01
18.7375,-0.006
18.74,-0.003
18.7425,-0.001
18.745,0.002
18.7475,0.003
18.75,0.005
18.7525,0.006
18.755,0.007
18.7575,0.008
18.76,0.009
18.7625,0.009
18.765,0.011
18.7675,0.012
18.77,0.014
18.7725,0.016
18.775,0.018
18.7775,0.02
18.78,0.022
18.7825,0.024
18.785,0.027
18.7875,0.03
18.79,0.033
18.7925,0.036
18.795,0.039
18.7975,0.042
18.8,0.044
18.8025,0.048
18.805,0.052
18.8075,0.057
18.81,0.063
18.8125,0.07
18.815,0.078
18.8175,0.084
18.82,0.09
18.8225,0.096
18.825,0.101
18.8275,0.106
18.83,0.111
18.8325,0.117
18.835,0.123
18.8375,0.131
18.84,0.139
18.8425,0.147
18.845,0.156
18.8475,0.165
18.85,0.173
18.8525,0.181
18.855,0.189
18.8575,0.197
18.86,0.204
18.8625,0.211
18.865,0.218
18.8675,0.225
18.87,0.231
18.8725,0.237
18.875,0.242
18.8775,0.248
18.88,0.253
18.8825,0.257
18.885,0.26
18.8875,0.261
18.89,0.26
18.8925,0.258
18.895,0.256
18.8975,0.253
18.9,0.25
18.9025,0.248
18.905,0.244
18.9075,0.238
18.91,0.23
18.9125,0.22
18.915,0.208
18.9175,0.194
18.92,0.18
18.9225,0.166
18.925,0.152
18.9275,0.138
18.93,0.123
18.9325,0.108
18.935,0.094
18.9375,0.081
18.94,0.068
18.9425,0.057
18.945,0.046
18.9475,0.036
18.95,0.027
18.9525,0.017
18.955,0.009
18.9575,0.001
18.96,-0.006
18.9625,-0.012
18.965,-0.017
18.9675,-0.02
18.97,-0.024
18.9725,-0.027
18.975,-0.031
18.9775,-0.034
18.98,-0.037
18.9825,-0.039
18.985,-0.041
18.9875,-0.044
18.99,-0.046
18.9925,-0.048
18.995,-0.051
18.9975,-0.053
19,-0.055
19.0025,-0.055
19.005,-0.055
19.0075,-0.055
19.01,-0.054
19.0125,-0.052
19.015,-0.051
19.0175,-0.049
19.02,-0.047
19.0225,-0.047
19.025,-0.047
19.0275,-0.048
19.03,-0.05
19.0325,-0.051
19.035,-0.052
19.0375,-0.052
19.04,-0.051
19.0425,-0.049
19.045,-0.047
19.0475,-0.047
19.05,-0.048
19.0525,-0.05
19.055,-0.053
19.0575,-0.055
19.06,-0.055
19.0625,-0.054
19.065,-0.053
19.0675,-0.051
19.07,-0.05
19.0725,-0.049
19.075,-0.049
19.0775,-0.048
19.08,-0.048
19.0825,-0.048
19.085,-0.048
19.0875,-0.049
19.09,-0.05
19.0925,-0.051
19.095,-0.051
19.0975,-0.051
19.1,-0.051
19.1025,-0.05
19.105,-0.05
19.1075,-0.05
19.11,-0.05
19.1125,-0.049
19.115,-0.049
19.1175,-0.048
19.12,-0.048
19.1225,-0.048
19.125,-0.047
19.1275,-0.047
19.13,-0.047
19.1325,-0.048
19.135,-0.049
19.1375,-0.051
19.14,-0.054
19.1425,-0.057
19.145,-0.06
19.1475,-0.061
19.15,-0.061
19.1525,-0.06
19.155,-0.058
19.1575,-0.056
19.16,-0.055
19.1625,-0.055
19.165,-0.056
19.1675,-0.057
19.17,-0.057
19.1725,-0.057
19.175,-0.057
19.1775,-0.056
19.18,-0.055
19.1825,-0.055
19.185,-0.056
19.1875,-0.058
19.19,-0.059
19.1925,-0.06
19.195,-0.061
19.1975,-0.06
19.2,-0.059
19.2025,-0.057
19.205,-0.056
19.2075,-0.054
19.21,-0.054
19.2125,-0.054
19.215,-0.055
19.2175,-0.057
19.22,-0.059
19.2225,-0.06
19.225,-0.061
19.2275,-0.062
19.23,-0.061
19.2325,-0.06
19.235,-0.059
19.2375,-0.057
19.24,-0.055
19.2425,-0.054
19.245,-0.055
19.2475,-0.056
19.25,-0.059
19.2525,-0.062
19.255,-0.064
19.2575,-0.066
19.26,-0.065
19.2625,-0.064
19.265,-0.061
19.2675,-0.059
19.27,-0.057
19.2725,-0.056
19.275,-0.056
19.2775,-0.057
19.28,-0.057
19.2825,-0.057
19.285,-0.055
19.2875,-0.052
19.29,-0.048
19.2925,-0.044
19.295,-0.039
19.2975,-0.035
19.3,-0.033
19.3025,-0.032
19.305,-0.032
19.3075,-0.033
19.31,-0.034
19.3125,-0.034
19.315,-0.033
19.3175,-0.031
19.32,-0.026
19.3225,-0.02
19.325,-0.013
19.3275,-0.006
19.33,0.001
19.3325,0.006
19.335,0.01
19.3375,0.011
19.34,0.012
19.3425,0.013
19.345,0.014
19.3475,0.018
19.35,0.024
19.3525,0.031
19.355,0.037
19.3575,0.042
19.36,0.043
19.3625,0.04
19.365,0.035
19.3675,0.027
19.37,0.017
19.3725,0.008
19.375,-0.002
19.3775,-0.011
19.38,-0.019
19.3825,-0.028
19.385,-0.036
19.3875,-0.044
19.39,-0.051
19.3925,-0.058
19.395,-0.064
19.3975,-0.069
19.4,-0.072
19.4025,-0.074
19.405,-0.074
19.4075,-0.073
19.41,-0.071
19.4125,-0.069
19.415,-0.069
19.4175,-0.071
19.42,-0.074
19.4225,-0.078
19.425,-0.081
19.4275,-0.082
19.43,-0.081
19.4325,-0.078
19.435,-0.076
19.4375,-0.075
19.44,-0.076
19.4425,-0.08
19.445,-0.084
19.4475,-0.087
19.45,-0.088
19.4525,-0.086
19.455,-0.081
19.4575,-0.075
19.46,-0.071
19.4625,-0.069
19.465,-0.072
19.4675,-0.079
19.47,-0.09
19.4725,-0.103
19.475,-0.116
19.4775,-0.125
19.48,-0.129
19.4825,-0.125
19.485,-0.112
19.4875,-0.088
19.49,-0.05
19.4925,0.003
19.495,0.074
19.4975,0.162
19.5,0.264
19.5025,0.374
19.505,0.484
19.5075,0.582
19.51,0.662
19.5125,0.717
19.515,0.74
19.5175,0.726
19.52,0.671
19.5225,0.572
19.525,0.433
19.5275,0.263
19.53,0.079
19.5325,-0.1
19.535,-0.253
19.5375,-0.368
19.54,-0.438
19.5425,-0.466
19.545,-0.464
19.5475,-0.442
19.55,-0.411
19.5525,-0.38
19.555,-0.351
19.5575,-0.327
19.56,-0.307
19.5625,-0.29
19.565,-0.273
19.5675,-0.255
19.57,-0.233
19.5725,-0.207
19.575,-0.178
19.5775,-0.146
19.58,-0.117
19.5825,-0.092
19.585,-0.075
19.5875,-0.067
19.59,-0.067
19.5925,-0.071
19.595,-0.076
19.5975,-0.079
19.6,-0.079
19.6025,-0.076
19.605,-0.068
19.6075,-0.059
19.61,-0.051
19.6125,-0.044
19.615,-0.039
19.6175,-0.038
19.62,-0.038
19.6225,-0.039
19.625,-0.039
19.6275,-0.037
19.63,-0.033
19.6325,-0.028
19.635,-0.025
19.6375,-0.023
19.64,-0.025
19.6425,-0.029
19.645,-0.033
19.6475,-0.036
19.65,-0.037
19.6525,-0.034
19.655,-0.029
19.6575,-0.023
19.66,-0.018
19.6625,-0.014
19.665,-0.013
19.6675,-0.013
19.67,-0.015
19.6725,-0.016
19.675,-0.016
19.6775,-0.014
19.68,-0.011
19.6825,-0.007
19.685,-0.003
19.6875,0
19.69,0.001
19.6925,0.002
19.695,0.001
19.6975,0
19.7,0
19.7025,0.001
19.705,0.002
19.7075,0.005
19.71,0.009
19.7125,0.012
19.715,0.016
19.7175,0.019
19.72,0.022
19.7225,0.024
19.725,0.026
19.7275,0.028
19.73,0.031
19.7325,0.034
19.735,0.037
19.7375,0.041
19.74,0.045
19.7425,0.049
19.745,0.053
19.7475,0.057
19.75,0.06
19.7525,0.062
19.755,0.063
19.7575,0.064
19.76,0.066
19.7625,0.07
19.765,0.075
19.7675,0.082
19.77,0.089
19.7725,0.097
19.775,0.104
19.7775,0.111
19.78,0.119
19.7825,0.128
19.785,0.136
19.7875,0.145
19.79,0.153
19.7925,0.16
19.795,0.166
19.7975,0.171
19.8,0.176
19.8025,0.182
19.805,0.188
19.8075,0.194
19.81,0.201
19.8125,0.208
19.815,0.215
19.8175,0.222
19.82,0.228
19.8225,0.235
19.825,0.241
19.8275,0.247
19.83,0.253
19.8325,0.258
19.835,0.262
19.8375,0.267
19.84,0.271
19.8425,0.274
19.845,0.277
19.8475,0.278
19.85,0.277
19.8525,0.274
19.855,0.268
19.8575,0.26
19.86,0.249
19.8625,0.238
19.865,0.226
19.8675,0.214
19.87,0.203
19.8725,0.192
19.875,0.181
19.8775,0.169
19.88,0.157
19.8825,0.144
19.885,0.13
19.8875,0.115
19.89,0.1
19.8925,0.085
19.895,0.071
19.8975,0.059
19.9,0.048
19.9025,0.039
19.905,0.03
19.9075,0.022
19.91,0.014
19.9125,0.006
19.915,-0.002
19.9175,-0.009
19.92,-0.016
19.9225,-0.022
19.925,-0.028
19.9275,-0.032
19.93,-0.036
19.9325,-0.039
19.935,-0.041
19.9375,-0.043
19.94,-0.043
19.9425,-0.044
19.945,-0.045
19.9475,-0.046
19.95,-0.048
19.9525,-0.05
19.955,-0.051
19.9575,-0.051
19.96,-0.05
19.9625,-0.049
19.965,-0.048
19.9675,-0.048
19.97,-0.049
19.9725,-0.05
19.975,-0.051
19.9775,-0.053
19.98,-0.055
19.9825,-0.056
19.985,-0.056
19.9875,-0.056
19.99,-0.055
19.9925,-0.053
19.995,-0.051
19.9975,-0.05
20,-0.05
20.0025,-0.05
20.005,-0.051
20.0075,-0.052
20.01,-0.053
20.0125,-0.053
20.015,-0.054
20.0175,-0.055
20.02,-0.056
20.0225,-0.056
20.025,-0.057
20.0275,-0.056
20.03,-0.055
20.0325,-0.054
20.035,-0.052
20.0375,-0.052
20.04,-0.052
20.0425,-0.053
20.045,-0.054
20.0475,-0.055
20.05,-0.056
20.0525,-0.056
20.055,-0.056
20.0575,-0.055
20.06,-0.055
20.0625,-0.056
20.065,-0.056
20.0675,-0.057
20.07,-0.057
20.0725,-0.056
20.075,-0.055
20.0775,-0.054
20.08,-0.053
20.0825,-0.053
20.085,-0.052
20.0875,-0.052
20.09,-0.052
20.0925,-0.053
20.095,-0.053
20.0975,-0.054
20.1,-0.055
20.1025,-0.056
20.105,-0.057
20.1075,-0.057
20.11,-0.058
20.1125,-0.058
20.115,-0.057
20.1175,-0.055
20.12,-0.053
20.1225,-0.051
20.125,-0.048
20.1275,-0.047
20.13,-0.047
20.1325,-0.048
20.135,-0.051
20.1375,-0.054
20.14,-0.058
20.1425,-0.06
20.145,-0.061
20.1475,-0.062
20.15,-0.061
20.1525,-0.061
20.155,-0.06
20.1575,-0.06
20.16,-0.059
20.1625,-0.058
20.165,-0.057
20.1675,-0.056
20.17,-0.055
20.1725,-0.055
20.175,-0.054
20.1775,-0.054
20.18,-0.054
20.1825,-0.054
20.185,-0.054
20.1875,-0.054
20.19,-0.054
20.1925,-0.055
20.195,-0.055
20.1975,-0.056
20.2,-0.056
20.2025,-0.056
20.205,-0.055
20.2075,-0.054
20.21,-0.053
20.2125,-0.051
20.215,-0.049
20.2175,-0.047
20.22,-0.046
20.2225,-0.047
20.225,-0.048
20.2275,-0.051
20.23,-0.053
20.2325,-0.054
20.235,-0.053
20.2375,-0.05
20.24,-0.046
20.2425,-0.041
20.245,-0.037
20.2475,-0.033
20.25,-0.03
20.2525,-0.027
20.255,-0.025
20.2575,-0.023
20.26,-0.022
20.2625,-0.02
20.265,-0.019
20.2675,-0.019
20.27,-0.017
20.2725,-0.014
20.275,-0.01
20.2775,-0.003
20.28,0.005
20.2825,0.013
20.285,0.021
20.2875,0.026
20.29,0.028
20.2925,0.029
20.295,0.028
20.2975,0.028
20.3,0.029
20.3025,0.032
20.305,0.036
20.3075,0.04
20.31,0.044
20.3125,0.046
20.315,0.045
20.3175,0.043
20.32,0.039
20.3225,0.033
20.325,0.025
20.3275,0.015
20.33,0.004
20.3325,-0.009
20.335,-0.021
20.3375,-0.032
20.34,-0.042
20.3425,-0.05
20.345,-0.056
20.3475,-0.061
20.35,-0.065
20.3525,-0.068
20.355,-0.069
20.3575,-0.07
20.36,-0.069
20.3625,-0.068
20.365,-0.068
20.3675,-0.069
20.37,-0.073
20.3725,-0.077
20.375,-0.081
20.3775,-0.084
20.38,-0.084
20.3825,-0.083
20.385,-0.079
20.3875,-0.075
20.39,-0.073
20.3925,-0.072
20.395,-0.074
20.3975,-0.078
20.4,-0.083
20.4025,-0.087
20.405,-0.089
20.4075,-0.088
20.41,-0.084
20.4125,-0.078
20.415,-0.072
20.4175,-0.069
20.42,-0.069
20.4225,-0.075
20.425,-0.084
20.4275,-0.096
20.43,-0.109
20.4325,-0.12
20.435,-0.127
20.4375,-0.127
20.44,-0.12
20.4425,-0.102
20.445,-0.073
20.4475,-0.029
20.45,0.032
20.4525,0.11
20.455,0.203
20.4575,0.307
20.46,0.415
20.4625,0.518
20.465,0.607
20.4675,0.675
20.47,0.712
20.4725,0.712
20.475,0.671
20.4775,0.585
20.48,0.456
20.4825,0.294
20.485,0.113
20.4875,-0.068
20.49,-0.227
20.4925,-0.351
20.495,-0.431
20.4975,-0.467
20.5,-0.468
20.5025,-0.446
20.505,-0.413
20.5075,-0.378
20.51,-0.347
20.5125,-0.323
20.515,-0.306
20.5175,-0.292
20.52,-0.281
20.5225,-0.269
20.525,-0.254
20.5275,-0.234
20.53,-0.208
20.5325,-0.177
20.535,-0.145
20.5375,-0.115
20.54,-0.09
20.5425,-0.073
20.545,-0.065
20.5475,-0.065
20.55,-0.068
20.5525,-0.072
20.555,-0.073
20.5575,-0.07
20.56,-0.065
20.5625,-0.057
20.565,-0.05
20.5675,-0.045
20.57,-0.044
20.5725,-0.044
20.575,-0.046
20.5775,-0.047
20.58,-0.046
20.5825,-0.043
20.585,-0.038
20.5875,-0.033
20.59,-0.028
20.5925,-0.024
20.595,-0.022
20.5975,-0.022
20.6,-0.024
20.6025,-0.026
20.605,-0.027
20.6075,-0.027
20.61,-0.025
20.6125,-0.022
20.615,-0.02
20.6175,-0.017
20.62,-0.016
20.6225,-0.015
20.625,-0.015
20.6275,-0.016
20.63,-0.015
20.6325,-0.014
20.635,-0.011
20.6375,-0.008
20.64,-0.004
20.6425,0
20.645,0.002
20.6475,0.004
20.65,0.005
20.6525,0.006
20.655,0.006
20.6575,0.007
20.66,0.009
20.6625,0.01
20.665,0.012
20.6675,0.014
20.67,0.016
20.6725,0.018
20.675,0.02
20.6775,0.023
20.68,0.027
20.6825,0.031
20.685,0.035
20.6875,0.038
20.69,0.041
20.6925,0.043
20.695,0.044
20.6975,0.045
20.7,0.046
20.7025,0.048
20.705,0.051
20.7075,0.054
20.71,0.058
20.7125,0.064
20.715,0.07
20.7175,0.078
20.72,0.085
20.7225,0.092
20.725,0.098
20.7275,0.103
20.73,0.108
20.7325,0.111
20.735,0.115
20.7375,0.12
20.74,0.125
20.7425,0.131
20.745,0.138
20.7475,0.146
20.75,0.154
20.7525,0.163
20.755,0.171
20.7575,0.179
20.76,0.187
20.7625,0.195
20.765,0.204
20.7675,0.212
20.77,0.22
20.7725,0.227
20.775,0.234
20.7775,0.239
20.78,0.244
20.7825,0.248
20.785,0.252
20.7875,0.256
20.79,0.26
20.7925,0.264
20.795,0.268
20.7975,0.271
20.8,0.274
20.8025,0.276
20.805,0.277
20.8075,0.277
20.81,0.274
20.8125,0.268
20.815,0.261
20.8175,0.252
20.82,0.241
20.8225,0.23
20.825,0.218
20.8275,0.205
20.83,0.193
20.8325,0.179
20.835,0.165
20.8375,0.149
20.84,0.133
20.8425,0.116
20.845,0.1
20.8475,0.085
20.85,0.072
20.8525,0.06
20.855,0.049
20.8575,0.039
20.86,0.03
20.8625,0.021
20.865,0.012
20.8675,0.004
20.87,-0.004
20.8725,-0.012
20.875,-0.019
20.8775,-0.025
20.88,-0.03
20.8825,-0.034
20.885,-0.038
20.8875,-0.041
20.89,-0.044
20.8925,-0.046
20.895,-0.048
20.8975,-0.05
20.9,-0.052
20.9025,-0.054
20.905,-0.055
20.9075,-0.056
20.91,-0.056
20.9125,-0.056
20.915,-0.055
20.9175,-0.055
20.92,-0.055
20.9225,-0.056
20.925,-0.057
20.9275,-0.058
20.93,-0.058
20.9325,-0.059
20.935,-0.06
20.9375,-0.061
20.94,-0.063
20.9425,-0.065
20.945,-0.066
20.9475,-0.067
20.95,-0.067
20.9525,-0.066
20.955,-0.065
20.9575,-0.064
20.96,-0.063
20.9625,-0.062
20.965,-0.062
20.9675,-0.061
20.97,-0.061
20.9725,-0.062
20.975,-0.063
20.9775,-0.064
20.98,-0.066
20.9825,-0.068
20.985,-0.068
20.9875,-0.068
20.99,-0.066
20.9925,-0.064
20.995,-0.062
20.9975,-0.061
21,-0.059
21.0025,-0.058
21.005,-0.058
21.0075,-0.057
21.01,-0.057
21.0125,-0.057
21.015,-0.056
21.0175,-0.056
21.02,-0.056
21.0225,-0.055
21.025,-0.054
21.0275,-0.053
21.03,-0.053
21.0325,-0.053
21.035,-0.053
21.0375,-0.053
21.04,-0.053
21.0425,-0.052
21.045,-0.05
21.0475,-0.048
21.05,-0.047
21.0525,-0.046
21.055,-0.046
21.0575,-0.047
21.06,-0.048
21.0625,-0.049
21.065,-0.049
21.0675,-0.049
21.07,-0.049
21.0725,-0.049
21.075,-0.049
21.0775,-0.049
21.08,-0.049
21.0825,-0.049
21.085,-0.049
21.0875,-0.05
21.09,-0.051
21.0925,-0.053
21.095,-0.054
21.0975,-0.054
21.1,-0.054
21.1025,-0.053
21.105,-0.053
21.1075,-0.053
21.11,-0.053
21.1125,-0.054
21.115,-0.055
21.1175,-0.057
21.12,-0.058
21.1225,-0.058
21.125,-0.058
21.1275,-0.057
21.13,-0.055
21.1325,-0.054
21.135,-0.052
21.1375,-0.05
21.14,-0.049
21.1425,-0.047
21.145,-0.047
21.1475,-0.046
21.15,-0.046
21.1525,-0.045
21.155,-0.043
21.1575,-0.041
21.16,-0.038
21.1625,-0.035
21.165,-0.034
21.1675,-0.033
21.17,-0.033
21.1725,-0.034
21.175,-0.035
21.1775,-0.034
21.18,-0.032
21.1825,-0.028
21.185,-0.022
21.1875,-0.016
21.19,-0.01
21.1925,-0.004
21.195,0.001
21.1975,0.004
21.2,0.007
21.2025,0.009
21.205,0.012
21.2075,0.015
21.21,0.02
21.2125,0.026
21.215,0.032
21.2175,0.038
21.22,0.041
21.2225,0.042
21.225,0.039
21.2275,0.033
21.23,0.024
21.2325,0.014
21.235,0.003
21.2375,-0.008
21.24,-0.017
21.2425,-0.026
21.245,-0.032
21.2475,-0.038
21.25,-0.044
21.2525,-0.049
21.255,-0.055
21.2575,-0.061
21.26,-0.067
21.2625,-0.07
21.265,-0.072
21.2675,-0.073
21.27,-0.073
21.2725,-0.072
21.275,-0.072
21.2775,-0.073
21.28,-0.074
21.2825,-0.075
21.285,-0.075
21.2875,-0.075
21.29,-0.074
21.2925,-0.075
21.295,-0.076
21.2975,-0.078
21.3,-0.081
21.3025,-0.085
21.305,-0.087
21.3075,-0.087
21.31,-0.086
21.3125,-0.082
21.315,-0.078
21.3175,-0.073
21.32,-0.069
21.3225,-0.068
21.325,-0.071
21.3275,-0.078
21.33,-0.087
21.3325,-0.097
21.335,-0.108
21.3375,-0.116
21.34,-0.12
21.3425,-0.118
21.345,-0.11
21.3475,-0.092
21.35,-0.063
21.3525,-0.019
21.355,0.042
21.3575,0.12
21.36,0.215
21.3625,0.321
21.365,0.43
21.3675,0.535
21.37,0.624
21.3725,0.689
21.375,0.723
21.3775,0.72
21.38,0.674
21.3825,0.584
21.385,0.453
21.3875,0.289
21.39,0.11
21.3925,-0.065
21.395,-0.218
21.3975,-0.333
21.4,-0.404
21.4025,-0.435
21.405,-0.433
21.4075,-0.412
21.41,-0.382
21.4125,-0.352
21.415,-0.326
21.4175,-0.306
21.42,-0.291
21.4225,-0.279
21.425,-0.268
21.4275,-0.255
21.43,-0.238
21.4325,-0.216
21.435,-0.188
21.4375,-0.156
21.44,-0.123
21.4425,-0.094
21.445,-0.071
21.4475,-0.058
21.45,-0.054
21.4525,-0.056
21.455,-0.062
21.4575,-0.067
21.46,-0.068
21.4625,-0.065
21.465,-0.059
21.4675,-0.052
21.47,-0.046
21.4725,-0.042
21.475,-0.04
21.4775,-0.041
21.48,-0.042
21.4825,-0.042
21.485,-0.041
21.4875,-0.037
21.49,-0.033
21.4925,-0.027
21.495,-0.022
21.4975,-0.017
21.5,-0.015
21.5025,-0.015
21.505,-0.016
21.5075,-0.019
21.51,-0.02
21.5125,-0.02
21.515,-0.018
21.5175,-0.015
21.52,-0.012
21.5225,-0.009
21.525,-0.007
21.5275,-0.007
21.53,-0.008
21.5325,-0.009
21.535,-0.009
21.5375,-0.008
21.54,-0.006
21.5425,-0.004
21.545,-0.001
21.5475,0
21.55,0.001
21.5525,0.002
21.555,0.002
21.5575,0.002
21.56,0.002
21.5625,0.003
21.565,0.004
21.5675,0.007
21.57,0.009
21.5725,0.013
21.575,0.017
21.5775,0.021
21.58,0.025
21.5825,0.029
21.585,0.032
21.5875,0.035
21.59,0.037
21.5925,0.039
21.595,0.041
21.5975,0.043
21.6,0.046
21.6025,0.048
21.605,0.051
21.6075,0.053
21.61,0.056
21.6125,0.059
21.615,0.063
21.6175,0.068
21.62,0.074
21.6225,0.081
21.625,0.088
21.6275,0.095
21.63,0.1
21.6325,0.105
21.635,0.11
21.6375,0.115
21.64,0.12
21.6425,0.126
21.645,0.132
21.6475,0.138
21.65,0.144
21.6525,0.15
21.655,0.156
21.6575,0.162
21.66,0.17
21.6625,0.178
21.665,0.186
21.6675,0.194
21.67,0.201
21.6725,0.208
21.675,0.215
21.6775,0.221
21.68,0.228
21.6825,0.235
21.685,0.242
21.6875,0.249
21.69,0.254
21.6925,0.259
21.695,0.263
21.6975,0.266
21.7,0.268
21.7025,0.27
21.705,0.271
21.7075,0.271
21.71,0.269
21.7125,0.267
21.715,0.262
21.7175,0.255
21.72,0.246
21.7225,0.236
21.725,0.225
21.7275,0.213
21.73,0.201
21.7325,0.188
21.735,0.174
21.7375,0.16
21.74,0.144
21.7425,0.127
21.745,0.11
21.7475,0.093
21.75,0.078
21.7525,0.066
21.755,0.055
21.7575,0.046
21.76,0.037
21.7625,0.028
21.765,0.019
21.7675,0.009
21.77,0.001
21.7725,-0.007
21.775,-0.013
21.7775,-0.018
21.78,-0.023
21.7825,-0.029
21.785,-0.034
21.7875,-0.039
21.79,-0.043
21.7925,-0.045
21.795,-0.046
21.7975,-0.046
21.8,-0.047
21.8025,-0.049
21.805,-0.052
21.8075,-0.055
21.81,-0.058
21.8125,-0.059
21.815,-0.059
21.8175,-0.058
21.82,-0.057
21.8225,-0.056
21.825,-0.056
21.8275,-0.057
21.83,-0.058
21.8325,-0.06
21.835,-0.062
21.8375,-0.064
21.84,-0.066
21.8425,-0.068
21.845,-0.068
21.8475,-0.069
21.85,-0.068
21.8525,-0.067
21.855,-0.066
21.8575,-0.064
21.86,-0.062
21.8625,-0.06
21.865,-0.059
21.8675,-0.058
21.87,-0.059
21.8725,-0.06
21.875,-0.061
21.8775,-0.062
21.88,-0.063
21.8825,-0.063
21.885,-0.064
21.8875,-0.065
21.89,-0.066
21.8925,-0.066
21.895,-0.067
21.8975,-0.066
21.9,-0.065
21.9025,-0.064
21.905,-0.062
21.9075,-0.059
21.91,-0.057
21.9125,-0.056
21.915,-0.055
21.9175,-0.055
21.92,-0.055
21.9225,-0.056
21.925,-0.058
21.9275,-0.059
21.93,-0.059
21.9325,-0.06
21.935,-0.06
21.9375,-0.06
21.94,-0.06
21.9425,-0.06
21.945,-0.06
21.9475,-0.059
21.95,-0.057
21.9525,-0.055
21.955,-0.053
21.9575,-0.051
21.96,-0.05
21.9625,-0.05
21.965,-0.051
21.9675,-0.052
21.97,-0.052
21.9725,-0.054
21.975,-0.056
21.9775,-0.058
21.98,-0.06
21.9825,-0.062
21.985,-0.063
21.9875,-0.061
21.99,-0.059
21.9925,-0.057
21.995,-0.054
21.9975,-0.053
22,-0.053
22.0025,-0.053
22.005,-0.055
22.0075,-0.056
22.01,-0.057
22.0125,-0.057
22.015,-0.057
22.0175,-0.057
22.02,-0.057
22.0225,-0.056
22.025,-0.057
22.0275,-0.057
22.03,-0.058
22.0325,-0.06
22.035,-0.062
22.0375,-0.063
22.04,-0.064
22.0425,-0.063
22.045,-0.062
22.0475,-0.061
22.05,-0.059
22.0525,-0.057
22.055,-0.055
22.0575,-0.054
22.06,-0.054
22.0625,-0.053
22.065,-0.054
22.0675,-0.055
22.07,-0.056
22.0725,-0.058
22.075,-0.06
22.0775,-0.061
22.08,-0.061
22.0825,-0.06
22.085,-0.059
22.0875,-0.057
22.09,-0.055
22.0925,-0.055
22.095,-0.055
22.0975,-0.057
22.1,-0.059
22.1025,-0.06
22.105,-0.06
22.1075,-0.059
22.11,-0.056
22.1125,-0.051
22.115,-0.046
22.1175,-0.041
22.12,-0.036
22.1225,-0.031
22.125,-0.028
22.1275,-0.025
22.13,-0.023
22.1325,-0.023
22.135,-0.023
22.1375,-0.024
22.14,-0.024
22.1425,-0.023
22.145,-0.02
22.1475,-0.014
22.15,-0.008
22.1525,0
22.155,0.007
22.1575,0.013
22.16,0.016
22.1625,0.018
22.165,0.018
22.1675,0.017
22.17,0.018
22.1725,0.019
22.175,0.023
22.1775,0.028
22.18,0.033
22.1825,0.038
22.185,0.041
22.1875,0.042
22.19,0.04
22.1925,0.035
22.195,0.028
22.1975,0.019
22.2,0.009
22.2025,-0.001
22.205,-0.01
22.2075,-0.02
22.21,-0.029
22.2125,-0.039
22.215,-0.048
22.2175,-0.057
22.22,-0.065
22.2225,-0.07
22.225,-0.073
22.2275,-0.074
22.23,-0.072
22.2325,-0.07
22.235,-0.068
22.2375,-0.068
22.24,-0.07
22.2425,-0.074
22.245,-0.078
22.2475,-0.081
22.25,-0.083
22.2525,-0.082
22.255,-0.08
22.2575,-0.077
22.26,-0.075
22.2625,-0.073
22.265,-0.073
22.2675,-0.075
22.27,-0.078
22.2725,-0.082
22.275,-0.084
22.2775,-0.084
22.28,-0.083
22.2825,-0.081
22.285,-0.078
22.2875,-0.076
22.29,-0.076
22.2925,-0.08
22.295,-0.086
22.2975,-0.095
22.3,-0.105
22.3025,-0.115
22.305,-0.121
22.3075,-0.122
22.31,-0.115
22.3125,-0.098
22.315,-0.068
22.3175,-0.023
22.32,0.039
22.3225,0.118
22.325,0.214
22.3275,0.319
22.33,0.428
22.3325,0.53
22.335,0.618
22.3375,0.682
22.34,0.717
22.3425,0.717
22.345,0.677
22.3475,0.594
22.35,0.468
22.3525,0.309
22.355,0.129
22.3575,-0.051
22.36,-0.211
22.3625,-0.337
22.365,-0.419
22.3675,-0.459
22.37,-0.465
22.3725,-0.448
22.375,-0.419
22.3775,-0.387
22.38,-0.356
22.3825,-0.329
22.385,-0.305
22.3875,-0.286
22.39,-0.269
22.3925,-0.253
22.395,-0.235
22.3975,-0.214
22.4,-0.188
22.4025,-0.158
22.405,-0.127
22.4075,-0.099
22.41,-0.077
22.4125,-0.063
22.415,-0.059
22.4175,-0.061
22.42,-0.065
22.4225,-0.07
22.425,-0.071
22.4275,-0.068
22.43,-0.061
22.4325,-0.053
22.435,-0.046
22.4375,-0.041
22.44,-0.039
22.4425,-0.039
22.445,-0.041
22.4475,-0.043
22.45,-0.043
22.4525,-0.042
22.455,-0.038
22.4575,-0.033
22.46,-0.028
22.4625,-0.024
22.465,-0.022
22.4675,-0.022
22.47,-0.023
22.4725,-0.025
22.475,-0.026
22.4775,-0.026
22.48,-0.024
22.4825,-0.02
22.485,-0.016
22.4875,-0.013
22.49,-0.01
