0.0025,0.0723
0.005,0.0534
0.0075,0.105
0.01,0.0998
0.0125,0.0895
0.015,0.0761
0.0175,0.112
0.02,0.0725
0.0225,0.0499
0.025,0.142
0.0275,0.0853
0.03,0.0962
0.0325,0.0899
0.035,0.111
0.0375,0.0667
0.04,0.138
0.0425,0.0752
0.045,0.0906
0.0475,0.0814
0.05,0.0996
0.0525,0.1
0.055,0.0955
0.0575,0.0442
0.06,0.109
0.0625,0.0661
0.065,0.0647
0.0675,0.0772
0.07,0.127
0.0725,0.0868
0.075,0.0552
0.0775,0.0547
0.08,0.0805
0.0825,0.0963
0.085,0.0298
0.0875,0.104
0.09,0.0548
0.0925,0.0492
0.095,0.121
0.0975,0.107
0.1,0.0922
0.1025,0.0956
0.105,0.0759
0.1075,0.0811
0.11,0.0617
0.1125,0.0726
0.115,0.0904
0.1175,0.0623
0.12,0.0311
0.1225,0.104
0.125,0.106
0.1275,0.0609
0.13,0.0967
0.1325,0.101
0.135,0.0896
0.1375,0.0692
0.14,0.115
0.1425,0.0597
0.145,0.12
0.1475,0.0778
0.15,0.104
0.1525,0.026
0.155,0.0697
0.1575,0.0906
0.16,0.0548
0.1625,0.0677
0.165,0.0553
0.1675,0.0674
0.17,0.0926
0.1725,0.12
0.175,0.0937
0.1775,0.0812
0.18,0.0636
0.1825,0.103
0.185,0.0847
0.1875,0.122
0.19,0.12
0.1925,0.0649
0.195,0.122
0.1975,0.0442
0.2,0.119
0.2025,0.0644
0.205,0.0687
0.2075,0.0986
0.21,0.134
0.2125,0.0398
0.215,0.0589
0.2175,0.101
0.22,0.0766
0.2225,0.0902
0.225,0.135
0.2275,0.0508
0.23,0.0799
0.2325,0.0312
0.235,0.0545
0.2375,0.0589
0.24,0.074
0.2425,0.0826
0.245,0.0921
0.2475,0.0573
0.25,0.0387
0.2525,0.0937
0.255,0.138
0.2575,0.051
0.26,0.0451
0.2625,0.097
0.265,0.027
0.2675,0.0811
0.27,0.0563
0.2725,0.108
0.275,0.0559
0.2775,0.0989
0.28,0.0694
0.2825,0.132
0.285,0.0927
0.2875,0.0943
0.29,0.103
0.2925,0.128
0.295,0.0322
0.2975,0.0878
0.3,0.0741
0.3025,0.125
0.305,0.0352
0.3075,0.0523
0.31,0.0649
0.3125,0.0711
0.315,0.0952
0.3175,0.104
0.32,0.0771
0.3225,0.0941
0.325,0.092
0.3275,0.0778
0.33,0.0316
0.3325,0.075
0.335,0.096
0.3375,0.105
0.34,0.0922
0.3425,0.047
0.345,0.0839
0.3475,0.0419
0.35,0.0472
0.3525,0.118
0.355,0.04
0.3575,0.0872
0.36,0.143
0.3625,0.0593
0.365,0.0648
0.3675,0.0971
0.37,0.0866
0.3725,0.141
0.375,0.129
0.3775,0.0653
0.38,0.0996
0.3825,0.0605
0.385,0.0518
0.3875,0.141
0.39,0.135
0.3925,0.065
0.395,0.0422
0.3975,0.1
0.4,0.0899
0.4025,0.0815
0.405,0.0723
0.4075,0.13
0.41,0.109
0.4125,0.0521
0.415,0.124
0.4175,0.077
0.42,0.0998
0.4225,0.123
0.425,0.0792
0.4275,0.0923
0.43,0.0975
0.4325,0.103
0.435,0.0351
0.4375,0.0648
0.44,0.0985
0.4425,0.0498
0.445,0.0687
0.4475,0.0959
0.45,0.116
0.4525,0.0832
0.455,0.0679
0.4575,0.0788
0.46,0.0517
0.4625,0.138
0.465,0.0806
0.4675,0.127
0.47,0.025
0.4725,0.0284
0.475,0.0774
0.4775,0.0877
0.48,0.0279
0.4825,0.0521
0.485,0.128
0.4875,0.0766
0.49,0.115
0.4925,0.118
0.495,0.0397
0.4975,0.0768
0.5,0.0687
0.5025,0.062
0.505,0.0795
0.5075,0.0504
0.51,0.0621
0.5125,0.0906
0.515,0.0319
0.5175,0.0982
0.52,0.106
0.5225,0.0543
0.525,0.114
0.5275,0.0606
0.53,0.0554
0.5325,0.0712
0.535,0.077
0.5375,0.0744
0.54,0.124
0.5425,0.0684
0.545,0.0859
0.5475,0.109
0.55,0.0339
0.5525,0.113
0.555,0.0678
0.5575,0.0589
0.56,0.0534
0.5625,0.0802
0.565,0.104
0.5675,0.0311
0.57,0.0958
0.5725,0.0262
0.575,0.0265
0.5775,0.122
0.58,0.046
0.5825,0.0884
0.585,0.111
0.5875,0.076
0.59,0.102
0.5925,0.0953
0.595,0.0654
0.5975,0.0704
0.6,0.0868
0.6025,0.107
0.605,0.114
0.6075,0.0967
0.61,0.113
0.6125,0.0742
0.615,0.0778
0.6175,0.0481
0.62,0.0708
0.6225,0.0579
0.625,0.0971
0.6275,0.0368
0.63,0.0612
0.6325,0.0592
0.635,0.103
0.6375,0.0751
0.64,0.0373
0.6425,0.0659
0.645,0.101
0.6475,0.0552
0.65,0.0813
0.6525,0.0521
0.655,0.121
0.6575,0.109
0.66,0.0779
0.6625,0.0876
0.665,0.0686
0.6675,0.123
0.67,0.102
0.6725,0.0818
0.675,0.0976
0.6775,0.106
0.68,0.0614
0.6825,0.0561
0.685,0.065
0.6875,0.114
0.69,0.106
0.6925,0.0869
0.695,0.104
0.6975,0.0788
0.7,0.0487
0.7025,0.0369
0.705,0.0656
0.7075,0.0961
0.71,0.0593
0.7125,0.135
0.715,0.0736
0.7175,0.0931
0.72,0.0957
0.7225,0.0908
0.725,0.108
0.7275,0.0322
0.73,0.0516
0.7325,0.0455
0.735,0.099
0.7375,0.0555
0.74,0.116
0.7425,0.0856
0.745,0.0624
0.7475,0.0837
0.75,0.0821
0.7525,0.014
0.755,0.105
0.7575,0.0688
0.76,0.121
0.7625,0.123
0.765,0.09
0.7675,0.11
0.77,-0.218
0.7725,-0.16
0.775,0.753
0.7775,1.27
0.78,-0.526
0.7825,-0.267
0.785,-0.188
0.7875,0.0195
0.79,-0.332
0.7925,0.817
0.795,0.322
0.7975,0.18
0.8,-0.256
0.8025,1.06
0.805,0.475
0.8075,-0.784
0.81,0.747
0.8125,-0.655
0.815,0.739
0.8175,0.611
0.82,-0.351
0.8225,-0.0557
0.825,0.176
0.8275,-0.476
0.83,0.342
0.8325,-0.278
0.835,0.358
0.8375,-0.489
0.84,-0.767
0.8425,0.791
0.845,-0.483
0.8475,0.985
0.85,-0.263
0.8525,-0.555
0.855,-0.66
0.8575,0.382
0.86,0.663
0.8625,-0.431
0.865,-0.824
0.8675,-0.649
0.87,0.242
0.8725,-0.0547
0.875,-0.684
0.8775,-0.806
0.88,-0.444
0.8825,-0.236
0.885,-0.678
0.8875,0.539
0.89,0.165
0.8925,0.909
0.895,-0.261
0.8975,0.654
0.9,0.596
0.9025,0.235
0.905,0.371
0.9075,0.181
0.91,0.509
0.9125,-0.687
0.915,0.909
0.9175,0.667
0.92,-0.52
0.9225,0.355
0.925,0.976
0.9275,0.175
0.93,0.0501
0.9325,-0.64
0.935,0.403
0.9375,0.494
0.94,0.477
0.9425,-0.181
0.945,0.866
0.9475,0.394
0.95,-0.186
0.9525,-0.691
0.955,0.19
0.9575,0.314
0.96,-0.0562
0.9625,-0.371
0.965,0.769
0.9675,0.512
0.97,-0.612
0.9725,-0.126
0.975,0.167
0.9775,0.879
0.98,0.00131
0.9825,-0.46
0.985,0.199
0.9875,-0.418
0.99,-0.0285
0.9925,-0.806
0.995,0.833
0.9975,0.278
1,0.189
1.0025,0.132
1.005,1.02
1.0075,-0.808
1.01,-0.714
1.0125,0.331
1.015,0.571
1.0175,-0.652
1.02,0.813
1.0225,-0.142
1.025,0.68
1.0275,0.0882
1.03,-0.0298
1.0325,-0.516
1.035,0.313
1.0375,0.2
1.04,-0.256
1.0425,0.0906
1.045,-0.78
1.0475,-0.92
1.05,0.903
1.0525,1.05
1.055,0.975
1.0575,-0.815
1.06,0.906
1.0625,-0.184
1.065,-0.0358
1.0675,0.5
1.07,0.274
1.0725,-0.462
1.075,-0.837
1.0775,0.43
1.08,0.314
1.0825,0.953
1.085,-0.273
1.0875,0.275
1.09,0.582
1.0925,0.793
1.095,0.84
1.0975,0.29
1.1,-0.644
1.1025,-0.56
1.105,0.746
1.1075,-0.401
1.11,1.06
1.1125,0.929
1.115,-0.676
1.1175,0.154
1.12,0.0207
1.1225,0.457
1.125,0.553
1.1275,0.652
1.13,-0.71
1.1325,-0.195
1.135,0.153
1.1375,0.78
1.14,0.253
1.1425,0.36
1.145,-0.759
1.1475,-0.754
1.15,0.472
1.1525,-0.645
1.155,-0.391
1.1575,-0.0487
1.16,0.317
1.1625,-0.748
1.165,-0.454
1.1675,-0.561
1.17,-0.0602
1.1725,-0.744
1.175,0.154
1.1775,-0.127
1.18,-0.727
1.1825,-0.297
1.185,0.615
1.1875,0.266
1.19,-0.343
1.1925,-0.266
1.195,-0.695
1.1975,-0.605
1.2,-0.209
1.2025,0.191
1.205,0.815
1.2075,0.757
1.21,-0.115
1.2125,-0.0276
1.215,0.308
1.2175,0.0213
1.22,-0.571
1.2225,0.593
1.225,0.362
1.2275,0.556
1.23,-0.28
1.2325,-0.152
1.235,-0.324
1.2375,-0.318
1.24,-0.0352
1.2425,-0.1
1.245,0.555
1.2475,-0.0275
1.25,-0.701
1.2525,-0.704
1.255,0.577
1.2575,-0.437
1.26,0.484
1.2625,0.306
1.265,0.205
1.2675,0.569
1.27,0.133
1.2725,0.851
1.275,0.989
1.2775,0.384
1.28,0.379
1.2825,-0.29
1.285,0.165
1.2875,-0.505
1.29,-0.374
1.2925,0.264
1.295,0.564
1.2975,0.178
1.3,0.544
1.3025,-0.526
1.305,0.794
1.3075,-0.703
1.31,0.164
1.3125,0.768
1.315,0.233
1.3175,-0.605
1.32,-0.619
1.3225,-0.0708
1.325,-0.549
1.3275,-0.416
1.33,-0.756
1.3325,-0.623
1.335,-1.08
1.3375,0.0752
1.34,0.723
1.3425,0.229
1.345,-1.08
1.3475,-0.398
1.35,0.653
1.3525,0.273
1.355,0.16
1.3575,0.863
1.36,0.6
1.3625,-0.655
1.365,-0.73
1.3675,-0.321
1.37,0.534
1.3725,0.272
1.375,-0.915
1.3775,0.257
1.38,0.88
1.3825,-0.739
1.385,0.102
1.3875,-0.38
1.39,0.145
1.3925,0.0188
1.395,-0.184
1.3975,0.0481
1.4,0.54
1.4025,-0.309
1.405,-0.401
1.4075,0.922
1.41,0.012
1.4125,0.123
1.415,0.106
1.4175,0.049
1.42,0.0854
1.4225,0.048
1.425,0.0572
1.4275,0.0807
1.43,0.0624
1.4325,0.0263
1.435,0.0499
1.4375,0.109
1.44,0.117
1.4425,0.101
1.445,0.119
1.4475,0.11
1.45,0.0581
1.4525,0.0725
1.455,0.0669
1.4575,0.0665
1.46,0.139
1.4625,0.0519
1.465,0.128
1.4675,0.0721
1.47,0.0853
1.4725,0.101
1.475,0.0547
1.4775,0.103
1.48,0.0963
1.4825,0.115
1.485,0.0969
1.4875,0.0563
1.49,0.0948
1.4925,0.0731
1.495,0.0375
1.4975,0.0726
1.5,0.142
1.5025,0.131
1.505,0.0901
1.5075,0.0575
1.51,0.0628
1.5125,0.0898
1.515,0.0883
1.5175,0.105
1.52,0.0828
1.5225,0.104
1.525,0.052
1.5275,0.0626
1.53,0.11
1.5325,0.0917
1.535,0.047
1.5375,0.119
1.54,0.043
1.5425,0.0807
1.545,0.0534
1.5475,0.0669
1.55,0.0918
1.5525,0.101
1.555,0.0974
1.5575,0.0524
1.56,0.11
1.5625,0.0303
1.565,0.046
1.5675,0.0745
1.57,0.0598
1.5725,0.104
1.575,0.106
1.5775,0.0357
1.58,0.0939
1.5825,0.088
1.585,0.0749
1.5875,0.115
1.59,0.0591
1.5925,0.122
1.595,0.127
1.5975,0.0539
1.6,0.132
1.6025,0.0433
1.605,0.0529
1.6075,0.0815
1.61,0.104
1.6125,0.124
1.615,0.117
1.6175,0.0662
1.62,0.0849
1.6225,0.102
1.625,0.0257
1.6275,0.0383
1.63,0.106
1.6325,0.0415
1.635,0.101
1.6375,0.0589
1.64,0.0952
1.6425,0.0727
1.645,0.115
1.6475,0.0375
1.65,0.0319
1.6525,0.0858
1.655,0.107
1.6575,0.0818
1.66,0.0781
1.6625,0.0617
1.665,0.109
1.6675,0.0661
1.67,0.111
1.6725,0.032
1.675,0.0765
1.6775,0.0686
1.68,0.0967
1.6825,0.0851
1.685,0.0945
1.6875,0.0468
1.69,0.0539
1.6925,0.103
1.695,0.0455
1.6975,0.0972
1.7,0.0532
1.7025,0.113
1.705,0.0429
1.7075,0.0971
1.71,0.0972
1.7125,0.0656
1.715,0.0594
1.7175,0.0715
1.72,0.0611
1.7225,0.0524
1.725,0.101
1.7275,0.0798
1.73,0.0714
1.7325,0.123
1.735,0.0899
1.7375,0.104
1.74,0.0535
1.7425,0.0262
1.745,0.0458
1.7475,0.0318
1.75,0.0695
1.7525,0.0861
1.755,0.0806
1.7575,0.128
1.76,0.13
1.7625,0.109
1.765,0.0866
1.7675,0.0554
1.77,0.0705
1.7725,0.0541
1.775,0.103
1.7775,0.0154
1.78,0.106
1.7825,0.0877
1.785,0.0418
1.7875,0.0456
1.79,0.0896
1.7925,0.156
1.795,0.0396
1.7975,0.0398
1.8,0.0527
1.8025,0.0348
1.805,0.111
1.8075,0.0545
1.81,0.0608
1.8125,0.0701
1.815,0.0697
1.8175,0.0778
1.82,0.0578
1.8225,0.0979
1.825,0.0597
1.8275,0.0943
1.83,0.0316
1.8325,0.0877
1.835,0.115
1.8375,0.12
1.84,0.0989
1.8425,0.0948
1.845,0.0425
1.8475,0.115
1.85,0.11
1.8525,0.083
1.855,0.07
1.8575,0.0873
1.86,0.0662
1.8625,0.106
1.865,0.125
1.8675,0.0331
1.87,0.107
1.8725,0.0819
1.875,0.103
1.8775,0.0573
1.88,0.0852
1.8825,0.0508
1.885,0.0442
1.8875,0.0728
1.89,0.0333
1.8925,0.0263
1.895,0.112
1.8975,0.0756
1.9,0.142
1.9025,0.128
1.905,0.0889
1.9075,0.0649
1.91,0.0541
1.9125,0.0454
1.915,0.108
1.9175,0.0829
1.92,0.0988
1.9225,0.0438
1.925,0.0972
1.9275,0.0566
1.93,0.1
1.9325,0.053
1.935,0.095
1.9375,0.0382
1.94,0.086
1.9425,0.0926
1.945,0.111
1.9475,0.0831
1.95,0.0976
1.9525,0.0983
1.955,0.114
1.9575,0.0594
1.96,0.0772
1.9625,0.0748
1.965,0.05
1.9675,0.0511
1.97,0.0384
1.9725,0.0685
1.975,0.06
1.9775,0.054
1.98,0.115
1.9825,0.0904
1.985,0.0891
1.9875,0.0993
1.99,0.0619
1.9925,0.109
1.995,0.073
1.9975,0.0446
2,0.0381
2.0025,0.0882
2.005,0.0568
2.0075,0.0286
2.01,0.109
2.0125,0.0359
2.015,0.0708
2.0175,0.139
2.02,0.044
2.0225,0.0824
2.025,0.0545
2.0275,0.0758
2.03,0.0485
2.0325,0.1
2.035,0.0482
2.0375,0.0855
2.04,0.0684
2.0425,0.0257
2.045,0.116
2.0475,0.059
2.05,0.102
2.0525,0.0472
2.055,0.0695
2.0575,0.0689
2.06,0.0608
2.0625,0.0953
2.065,0.0524
2.0675,0.122
2.07,0.119
2.0725,0.0998
2.075,0.119
2.0775,0.12
2.08,0.115
2.0825,0.0442
2.085,0.0944
2.0875,0.0846
2.09,0.106
2.0925,0.0808
2.095,0.108
2.0975,0.1
2.1,0.0959
2.1025,0.116
2.105,0.123
2.1075,0.0428
2.11,0.108
2.1125,0.107
2.115,0.0608
2.1175,0.0743
2.12,0.102
2.1225,0.0509
2.125,0.0968
2.1275,0.0795
2.13,0.0416
2.1325,0.0322
2.135,0.0794
2.1375,0.0452
2.14,0.0996
2.1425,0.0458
2.145,0.104
2.1475,0.0541
2.15,0.0522
2.1525,0.0407
2.155,0.0865
2.1575,0.0985
2.16,0.121
2.1625,0.122
2.165,0.112
2.1675,0.0661
2.17,0.054
2.1725,0.108
2.175,0.0527
2.1775,-0.202
2.18,0.547
2.1825,0.51
2.185,1.22
2.1875,0.86
2.19,-0.849
2.1925,1.05
2.195,0.965
2.1975,-0.1
2.2,0.0716
2.2025,-0.7
2.205,-0.214
2.2075,-0.79
2.21,0.854
2.2125,0.966
2.215,0.0467
2.2175,0.646
2.22,-0.285
2.2225,-0.338
2.225,0.564
2.2275,-0.202
2.23,-0.636
2.2325,0.145
2.235,-0.263
2.2375,-0.0275
2.24,-0.45
2.2425,1.03
2.245,-0.488
2.2475,-0.589
2.25,0.0392
2.2525,0.354
2.255,1.09
2.2575,0.365
2.26,-0.363
2.2625,-0.855
2.265,0.838
2.2675,0.675
2.27,-0.4
2.2725,0.756
2.275,0.51
2.2775,-0.407
2.28,0.206
2.2825,-0.13
2.285,-0.437
2.2875,0.947
2.29,0.339
2.2925,0.239
2.295,0.843
2.2975,-0.785
2.3,0.169
2.3025,0.467
2.305,-0.533
2.3075,-0.464
2.31,0.256
2.3125,-0.123
2.315,0.165
2.3175,0.11
2.32,0.165
2.3225,-0.171
2.325,0.851
2.3275,0.313
2.33,0.959
2.3325,0.564
2.335,-0.199
2.3375,0.429
2.34,-0.181
2.3425,-0.215
2.345,0.576
2.3475,-0.688
2.35,-0.34
2.3525,-0.818
2.355,1.03
2.3575,0.446
2.36,0.185
2.3625,-0.974
2.365,0.41
2.3675,-0.676
2.37,-0.401
2.3725,0.556
2.375,-0.192
2.3775,0.175
2.38,0.12
2.3825,-0.413
2.385,0.719
2.3875,0.621
2.39,-0.155
2.3925,-0.203
2.395,-0.673
2.3975,0.505
2.4,0.0971
2.4025,0.145
2.405,0.818
2.4075,0.162
2.41,0.336
2.4125,1.03
2.415,-0.0579
2.4175,0.31
2.42,0.0231
2.4225,0.594
2.425,0.351
2.4275,-0.494
2.43,-0.214
2.4325,0.302
2.435,-0.917
2.4375,0.617
2.44,-0.0616
2.4425,-0.386
2.445,-0.416
2.4475,-0.193
2.45,0.221
2.4525,0.716
2.455,0.328
2.4575,0.485
2.46,-0.717
2.4625,-0.455
2.465,0.582
2.4675,0.586
2.47,0.495
2.4725,0.175
2.475,0.183
2.4775,0.951
2.48,0.696
2.4825,0.672
2.485,0.696
2.4875,-0.328
2.49,-0.0549
2.4925,-0.308
2.495,0.34
2.4975,0.463
2.5,-0.104
2.5025,0.168
2.505,0.737
2.5075,-0.781
2.51,0.856
2.5125,-0.696
2.515,-0.35
2.5175,0.166
2.52,-0.493
2.5225,-0.269
2.525,-0.197
2.5275,0.691
2.53,0.748
2.5325,-0.671
2.535,0.891
2.5375,0.612
2.54,0.416
2.5425,0.294
2.545,-0.287
2.5475,0.386
2.55,0.225
2.5525,-0.175
2.555,0.441
2.5575,-0.252
2.56,-0.898
2.5625,-0.273
2.565,0.118
2.5675,0.133
2.57,-0.237
2.5725,0.576
2.575,-0.685
2.5775,0.0612
2.58,-0.571
2.5825,0.549
2.585,-0.307
2.5875,0.274
2.59,-0.609
2.5925,0.627
2.595,-0.401
2.5975,0.365
2.6,0.27
2.6025,0.671
2.605,-0.0594
2.6075,0.967
2.61,-0.668
2.6125,0.313
2.615,0.47
2.6175,0.0224
2.62,0.0895
2.6225,-0.764
2.625,0.237
2.6275,0.00375
2.63,-0.209
2.6325,-0.962
2.635,0.232
2.6375,0.531
2.64,-0.47
2.6425,0.382
2.645,-0.281
2.6475,-0.635
2.65,-0.184
2.6525,0.727
2.655,-0.685
2.6575,-0.165
2.66,0.476
2.6625,-0.483
2.665,0.266
2.6675,0.0194
2.67,-0.117
2.6725,0.978
2.675,-0.0357
2.6775,0.777
2.68,0.854
2.6825,-0.0814
2.685,0.38
2.6875,-0.0859
2.69,1.07
2.6925,0.059
2.695,-0.643
2.6975,-0.514
2.7,-0.349
2.7025,-0.489
2.705,0.39
2.7075,0.97
2.71,0.138
2.7125,-0.293
2.715,-0.495
2.7175,0.74
2.72,-0.0795
2.7225,0.856
2.725,-0.386
2.7275,0.527
2.73,0.123
2.7325,-0.641
2.735,-0.293
2.7375,0.235
2.74,-0.0496
2.7425,0.552
2.745,-0.902
2.7475,-0.818
2.75,0.358
2.7525,-0.102
2.755,0.581
2.7575,0.963
2.76,-0.449
2.7625,-0.147
2.765,-0.0326
2.7675,-0.238
2.77,-0.401
2.7725,-0.558
2.775,0.292
2.7775,0.771
2.78,-0.145
2.7825,0.139
2.785,-0.0281
2.7875,0.509
2.79,-0.0141
2.7925,-0.533
2.795,0.393
2.7975,-0.508
2.8,-0.31
2.8025,-0.545
2.805,-0.423
2.8075,-0.722
2.81,-0.0517
2.8125,0.29
2.815,1.02
2.8175,0.00386
2.82,0.0559
2.8225,0.0735
2.825,0.0949
2.8275,0.0829
2.83,0.0888
2.8325,0.0615
2.835,0.0786
2.8375,0.125
2.84,0.0731
2.8425,0.0831
2.845,0.0561
2.8475,0.107
2.85,0.127
2.8525,0.103
2.855,0.0362
2.8575,0.111
2.86,0.0811
2.8625,0.0992
2.865,0.0929
2.8675,0.0825
2.87,0.0943
2.8725,0.118
2.875,0.107
2.8775,0.0863
2.88,0.0197
2.8825,0.0554
2.885,0.122
2.8875,0.0743
2.89,0.116
2.8925,0.103
2.895,0.0326
2.8975,0.116
2.9,0.093
2.9025,0.0617
2.905,0.117
2.9075,0.0617
2.91,0.0715
2.9125,0.0512
2.915,0.0865
2.9175,0.0749
2.92,0.0412
2.9225,0.0553
2.925,0.0862
2.9275,0.0161
2.93,0.134
2.9325,0.0877
2.935,0.0594
2.9375,0.0404
2.94,0.0589
2.9425,0.0494
2.945,0.0768
2.9475,0.0983
2.95,0.0697
2.9525,0.117
2.955,0.0853
2.9575,0.101
2.96,0.0684
2.9625,0.112
2.965,0.0575
2.9675,0.0793
2.97,0.0271
2.9725,0.0758
2.975,0.113
2.9775,0.0546
2.98,0.0499
2.9825,0.044
2.985,0.0593
2.9875,0.0829
2.99,0.0413
2.9925,0.0217
2.995,0.0536
2.9975,0.0504
3,0.0329
3.0025,0.041
3.005,0.135
3.0075,0.0732
3.01,0.11
3.0125,0.101
3.015,0.101
3.0175,0.0977
3.02,0.0598
3.0225,0.0968
3.025,0.0658
3.0275,0.125
3.03,0.116
3.0325,0.139
3.035,0.0639
3.0375,0.096
3.04,0.0656
3.0425,0.0755
3.045,0.11
3.0475,0.0562
3.05,0.0601
3.0525,0.0501
3.055,0.115
3.0575,0.0574
3.06,0.0622
3.0625,0.0567
3.065,0.0976
3.0675,0.0908
3.07,0.064
3.0725,0.0402
3.075,0.0448
3.0775,0.0931
3.08,0.105
3.0825,0.0857
3.085,0.136
3.0875,0.106
3.09,0.0898
3.0925,0.094
3.095,0.145
3.0975,0.0768
3.1,0.0597
3.1025,0.0482
3.105,0.0292
3.1075,0.112
3.11,0.049
3.1125,0.117
3.115,0.0749
3.1175,0.116
3.12,0.0861
3.1225,0.0426
3.125,0.0992
3.1275,0.132
3.13,0.0409
3.1325,0.137
3.135,0.104
3.1375,0.0735
3.14,0.0625
3.1425,0.116
3.145,0.0838
3.1475,0.0456
3.15,0.116
3.1525,0.0974
3.155,0.0852
3.1575,0.0347
3.16,0.0647
3.1625,0.0637
3.165,0.0357
3.1675,0.0348
3.17,0.112
3.1725,0.0734
3.175,0.106
3.1775,0.121
3.18,0.11
3.1825,0.0606
3.185,0.0701
3.1875,0.115
3.19,0.11
3.1925,0.0715
3.195,0.117
3.1975,0.0901
3.2,0.0768
3.2025,0.0881
3.205,0.0687
3.2075,0.0468
3.21,0.0765
3.2125,0.0359
3.215,0.115
3.2175,0.0837
3.22,0.0168
3.2225,0.0957
3.225,0.0765
3.2275,0.0862
3.23,0.0977
3.2325,0.0769
3.235,0.134
3.2375,0.103
3.24,0.135
3.2425,0.0293
3.245,0.0515
3.2475,0.0952
3.25,0.0824
3.2525,0.0604
3.255,0.11
3.2575,0.0655
3.26,0.131
3.2625,0.0924
3.265,0.0997
3.2675,0.0805
3.27,0.0476
3.2725,0.118
3.275,0.101
3.2775,0.0865
3.28,0.13
3.2825,0.0481
3.285,0.0534
3.2875,0.106
3.29,0.0944
3.2925,0.123
3.295,0.116
3.2975,0.111
3.3,0.0538
3.3025,0.0586
3.305,0.0936
3.3075,0.104
3.31,0.0587
3.3125,0.0887
3.315,0.105
3.3175,0.0734
3.32,0.122
3.3225,0.11
3.325,0.035
3.3275,0.0917
3.33,0.0276
3.3325,0.0706
3.335,0.0809
3.3375,0.075
3.34,0.104
3.3425,0.109
3.345,0.123
3.3475,0.115
3.35,0.0391
3.3525,0.0863
3.355,0.101
3.3575,0.0673
3.36,0.0649
3.3625,0.0718
3.365,0.0697
3.3675,0.0778
3.37,0.0471
3.3725,0.0515
3.375,0.14
3.3775,0.129
3.38,0.0936
3.3825,0.0918
3.385,0.0614
3.3875,0.054
3.39,0.0784
3.3925,0.0883
3.395,0.0723
3.3975,0.125
3.4,0.138
3.4025,0.0347
3.405,0.0736
3.4075,0.0878
3.41,0.0561
3.4125,0.0493
3.415,0.0837
3.4175,0.093
3.42,0.0692
3.4225,0.0613
3.425,0.0991
3.4275,0.0759
3.43,0.126
3.4325,0.0758
3.435,0.0797
3.4375,0.105
3.44,0.0802
3.4425,0.0753
3.445,0.0542
3.4475,0.0909
3.45,0.0443
3.4525,0.121
3.455,0.0589
3.4575,0.0385
3.46,0.0503
3.4625,0.0682
3.465,0.0639
3.4675,0.0881
3.47,0.0651
3.4725,0.0742
3.475,0.088
3.4775,0.0662
3.48,0.129
3.4825,0.04
3.485,0.0926
3.4875,0.0498
3.49,0.0815
3.4925,0.133
3.495,0.0512
3.4975,0.0893
3.5,0.0949
3.5025,0.0825
3.505,0.0714
3.5075,0.134
3.51,0.0812
3.5125,0.0696
3.515,0.0491
3.5175,0.12
3.52,0.0588
3.5225,0.0709
3.525,0.0962
3.5275,0.115
3.53,0.0632
3.5325,0.0627
3.535,0.083
3.5375,0.101
3.54,0.0578
3.5425,0.08
3.545,0.0722
3.5475,0.0392
3.55,0.0453
3.5525,0.107
3.555,0.0851
3.5575,0.0477
3.56,0.101
3.5625,0.085
3.565,0.119
3.5675,0.0262
3.57,0.0829
3.5725,0.118
3.575,0.0628
3.5775,0.101
3.58,0.115
3.5825,0.111
3.585,-0.0373
3.5875,-0.598
3.59,0.553
3.5925,-0.79
3.595,-0.0494
3.5975,0.0717
3.6,-0.42
3.6025,1.14
3.605,-0.175
3.6075,0.0122
3.61,-0.555
3.6125,-0.132
3.615,-0.705
3.6175,0.0651
3.62,0.773
3.6225,0.345
3.625,0.657
3.6275,-0.125
3.63,0.331
3.6325,0.942
3.635,0.508
3.6375,-0.596
3.64,-0.122
3.6425,-0.154
3.645,0.144
3.6475,0.338
3.65,0.311
3.6525,-0.195
3.655,0.741
3.6575,0.31
3.66,0.363
3.6625,0.276
3.665,1
3.6675,0.842
3.67,0.28
3.6725,-0.761
3.675,0.755
3.6775,-0.0886
3.68,-0.0869
3.6825,0.129
3.685,-0.53
3.6875,0.535
3.69,0.498
3.6925,-0.373
3.695,-0.953
3.6975,0.747
3.7,0.0943
3.7025,-0.356
3.705,0.641
3.7075,0.614
3.71,-0.287
3.7125,-0.282
3.715,-0.427
3.7175,0.0257
3.72,0.653
3.7225,0.246
3.725,0.773
3.7275,-0.732
3.73,-0.307
3.7325,0.6
3.735,0.508
3.7375,-0.797
3.74,-0.52
3.7425,-0.506
3.745,-0.917
3.7475,0.853
3.75,-0.12
3.7525,0.311
3.755,0.334
3.7575,0.0934
3.76,0.265
3.7625,0.184
3.765,-0.262
3.7675,-0.63
3.77,-0.2
3.7725,-0.222
3.775,-0.535
3.7775,0.687
3.78,0.966
3.7825,-0.657
3.785,0.151
3.7875,-0.526
3.79,0.655
3.7925,0.277
3.795,-0.299
3.7975,-0.482
3.8,-0.00254
3.8025,0.185
3.805,-0.0422
3.8075,-0.175
3.81,0.921
3.8125,-0.701
3.815,-0.353
3.8175,-0.149
3.82,-0.0447
3.8225,0.534
3.825,0.217
3.8275,0.064
3.83,0.782
3.8325,-0.166
3.835,-0.181
3.8375,0.821
3.84,0.194
3.8425,-0.234
3.845,0.015
3.8475,0.261
3.85,-0.677
3.8525,-0.953
3.855,-0.495
3.8575,0.649
3.86,0.896
3.8625,-0.346
3.865,-0.268
3.8675,0.173
3.87,-0.291
3.8725,-0.373
3.875,-0.206
3.8775,0.226
3.88,1.15
3.8825,0.104
3.885,0.161
3.8875,0.866
3.89,-0.65
3.8925,-0.292
3.895,-0.276
3.8975,0.51
3.9,0.275
3.9025,0.1
3.905,0.115
3.9075,0.674
3.91,-0.0378
3.9125,0.907
3.915,0.869
3.9175,0.517
3.92,-0.259
3.9225,0.946
3.925,0.652
3.9275,0.771
3.93,0.793
3.9325,0.721
3.935,-0.708
3.9375,-0.299
3.94,-0.687
3.9425,-0.736
3.945,-0.779
3.9475,-0.434
3.95,-0.029
3.9525,-0.309
3.955,-0.188
3.9575,0.706
3.96,-0.203
3.9625,0.688
3.965,-0.0729
3.9675,0.109
3.97,-0.812
3.9725,0.106
3.975,-0.777
3.9775,0.467
3.98,-0.424
3.9825,1.02
3.985,0.443
3.9875,-0.133
3.99,-1.04
3.9925,0.992
3.995,-0.41
3.9975,-0.838
4,-0.0666
4.0025,-0.0634
4.005,0.427
4.0075,0.12
4.01,0.539
4.0125,0.671
4.015,0.132
4.0175,-0.441
4.02,0.0406
4.0225,-0.109
4.025,-0.102
4.0275,0.345
4.03,0.239
4.0325,0.79
4.035,-1.13
4.0375,-0.601
4.04,0.538
4.0425,-0.849
4.045,0.31
4.0475,0.593
4.05,-0.772
4.0525,0.575
4.055,1.06
4.0575,0.989
4.06,-0.529
4.0625,0.543
4.065,-0.034
4.0675,0.396
4.07,0.929
4.0725,-0.703
4.075,1.04
4.0775,0.403
4.08,0.00619
4.0825,-0.692
4.085,0.403
4.0875,-0.274
4.09,1.31
4.0925,-0.205
4.095,-0.594
4.0975,0.894
4.1,0.203
4.1025,0.143
4.105,0.391
4.1075,0.154
4.11,0.925
4.1125,-0.511
4.115,-0.258
4.1175,-0.254
4.12,1.32
4.1225,-0.338
4.125,0.844
4.1275,-0.422
4.13,-0.526
4.1325,0.111
4.135,-0.686
4.1375,0.439
4.14,0.552
4.1425,0.982
4.145,0.383
4.1475,0.0204
4.15,-0.706
4.1525,-0.131
4.155,-0.245
4.1575,-0.57
4.16,-0.0635
4.1625,-0.8
4.165,0.821
4.1675,-0.344
4.17,-0.0173
4.1725,0.395
4.175,0.781
4.1775,0.903
4.18,-0.126
4.1825,0.341
4.185,0.263
4.1875,0.296
4.19,-0.651
4.1925,0.749
4.195,0.0494
4.1975,0.901
4.2,-0.505
4.2025,0.595
4.205,0.793
4.2075,0.763
4.21,0.684
4.2125,-0.0932
4.215,0.153
4.2175,0.453
4.22,0.367
4.2225,-0.118
4.225,0.524
4.2275,0.0983
4.23,0.0862
4.2325,0.0638
4.235,0.0792
4.2375,0.0829
4.24,0.111
4.2425,0.0792
4.245,0.0911
4.2475,0.0291
4.25,0.00897
4.2525,0.066
4.255,0.0687
4.2575,0.0297
4.26,0.0954
4.2625,0.0693
4.265,0.122
4.2675,0.0871
4.27,0.102
4.2725,0.0724
4.275,0.0717
4.2775,0.0707
4.28,0.127
4.2825,0.0729
4.285,0.101
4.2875,0.0981
4.29,0.118
4.2925,0.0573
4.295,0.129
4.2975,0.0789
4.3,0.123
4.3025,0.145
4.305,0.0821
4.3075,0.111
4.31,0.0669
4.3125,0.1
4.315,0.105
4.3175,0.0852
4.32,0.0846
4.3225,0.0195
4.325,0.0655
4.3275,0.0901
4.33,0.101
4.3325,0.054
4.335,0.0795
4.3375,0.0513
4.34,0.0678
4.3425,0.0481
4.345,0.112
4.3475,0.0528
4.35,0.00938
4.3525,0.0469
4.355,0.0903
4.3575,0.131
4.36,0.0334
4.3625,0.047
4.365,0.108
4.3675,0.0795
4.37,0.114
4.3725,0.0306
4.375,0.0452
4.3775,0.0555
4.38,0.0454
4.3825,0.119
4.385,0.0514
4.3875,0.0652
4.39,0.035
4.3925,0.0353
4.395,0.116
4.3975,0.039
4.4,0.107
4.4025,0.0584
4.405,0.0697
4.4075,0.112
4.41,0.0691
4.4125,0.0767
4.415,0.099
4.4175,0.0736
4.42,0.0641
4.4225,0.0562
4.425,0.0698
4.4275,0.0777
4.43,0.0793
4.4325,0.135
4.435,0.129
4.4375,0.0954
4.44,0.0674
4.4425,0.076
4.445,0.0541
4.4475,0.121
4.45,0.0301
4.4525,0.0793
4.455,0.0377
4.4575,0.0726
4.46,0.0507
4.4625,0.115
4.465,0.0402
4.4675,0.104
4.47,0.0845
4.4725,0.0826
4.475,0.07
4.4775,0.0394
4.48,0.112
4.4825,0.0356
4.485,0.112
4.4875,0.103
4.49,0.0918
4.4925,0.083
4.495,0.107
4.4975,0.0993
4.5,0.108
4.5025,0.0831
4.505,0.107
4.5075,0.0507
4.51,0.0579
4.5125,0.0472
4.515,0.0979
4.5175,0.05
4.52,0.0589
4.5225,0.0778
4.525,0.0849
4.5275,0.11
4.53,0.0919
4.5325,0.045
4.535,0.0822
4.5375,0.0437
4.54,0.0866
4.5425,0.0608
4.545,0.103
4.5475,0.083
4.55,0.0837
4.5525,0.105
4.555,0.0788
4.5575,0.0796
4.56,0.0862
4.5625,0.134
4.565,0.0738
4.5675,0.052
4.57,0.0621
4.5725,0.0526
4.575,0.108
4.5775,0.117
4.58,0.0662
4.5825,0.0935
4.585,0.0833
4.5875,0.0477
4.59,0.0982
4.5925,0.0971
4.595,0.0264
4.5975,0.0285
4.6,0.027
4.6025,0.0884
4.605,0.0595
4.6075,0.0807
4.61,0.082
4.6125,0.0643
4.615,0.0409
4.6175,0.0813
4.62,0.0583
4.6225,0.0585
4.625,0.0748
4.6275,0.0788
4.63,0.105
4.6325,0.103
4.635,0.113
4.6375,0.0655
4.64,0.133
4.6425,0.02
4.645,0.052
4.6475,0.0354
4.65,0.117
4.6525,0.0884
4.655,0.0298
4.6575,0.0957
4.66,0.0462
4.6625,0.0559
4.665,0.0334
4.6675,0.0678
4.67,0.107
4.6725,0.125
4.675,0.0622
4.6775,0.0625
4.68,0.0648
4.6825,0.0682
4.685,0.111
4.6875,0.0471
4.69,0.0617
4.6925,0.103
4.695,0.114
4.6975,0.0747
4.7,0.0543
4.7025,0.118
4.705,0.12
4.7075,0.0499
4.71,0.0539
4.7125,0.0531
4.715,0.106
4.7175,0.0269
4.72,0.116
4.7225,0.0377
4.725,0.0379
4.7275,0.0614
4.73,0.0485
4.7325,0.104
4.735,0.0763
4.7375,0.0999
4.74,0.0631
4.7425,0.0536
4.745,0.0698
4.7475,0.124
4.75,0.0937
4.7525,0.0393
4.755,0.0645
4.7575,0.053
4.76,0.0569
4.7625,0.0703
4.765,0.0505
4.7675,0.0778
4.77,0.053
4.7725,0.0432
4.775,0.0544
4.7775,0.126
4.78,0.0723
4.7825,0.0716
4.785,0.111
4.7875,0.119
4.79,0.113
4.7925,0.055
4.795,0.0827
4.7975,0.0624
4.8,0.0378
4.8025,0.0622
4.805,0.0273
4.8075,0.0483
4.81,0.0573
4.8125,0.0756
4.815,0.0625
4.8175,0.0506
4.82,0.12
4.8225,0.0958
4.825,0.123
4.8275,0.103
4.83,0.0935
4.8325,0.0547
4.835,0.0804
4.8375,0.0813
4.84,0.11
4.8425,0.0873
4.845,0.0496
4.8475,0.0652
4.85,0.0862
4.8525,0.0734
4.855,0.0831
4.8575,0.0808
4.86,0.0714
4.8625,0.103
4.865,0.0711
4.8675,0.0603
4.87,0.076
4.8725,0.148
4.875,0.147
4.8775,0.088
4.88,0.08
4.8825,0.104
4.885,0.0573
4.8875,0.132
4.89,0.0935
4.8925,0.0485
4.895,0.0403
4.8975,0.0683
4.9,0.0636
4.9025,0.0654
4.905,0.0313
4.9075,0.0881
4.91,0.0928
4.9125,0.0416
4.915,0.0838
4.9175,0.052
4.92,0.0674
4.9225,0.053
4.925,0.0695
4.9275,0.0742
4.93,0.0925
4.9325,0.0924
4.935,0.105
4.9375,0.0772
4.94,0.113
4.9425,0.098
4.945,0.13
4.9475,0.0614
4.95,0.0615
4.9525,0.05
4.955,0.0839
4.9575,0.0935
4.96,0.0192
4.9625,0.0566
4.965,0.0365
4.9675,0.0418
4.97,0.0543
4.9725,0.0754
4.975,0.0784
4.9775,0.104
4.98,0.0307
4.9825,0.117
4.985,0.0809
4.9875,0.0107
4.99,0.0625
4.9925,0.0913
4.995,0.354
4.9975,-0.894
5,-0.247
5.0025,-0.204
5.005,0.312
5.0075,0.113
5.01,0.761
5.0125,-0.558
5.015,-0.261
5.0175,-0.76
5.02,-0.787
5.0225,-0.0733
5.025,-0.521
5.0275,0.254
5.03,-1.01
5.0325,-0.0253
5.035,-0.997
5.0375,0.599
5.04,-0.152
5.0425,-0.974
5.045,0.64
5.0475,0.415
5.05,-0.432
5.0525,0.759
5.055,-0.423
5.0575,0.162
5.06,-0.283
5.0625,0.405
5.065,0.0764
5.0675,-0.032
5.07,-0.34
5.0725,0.529
5.075,1.09
5.0775,0.944
5.08,0.565
5.0825,-0.414
5.085,-0.202
5.0875,0.615
5.09,0.0193
5.0925,0.863
5.095,-0.336
5.0975,-0.135
5.1,-0.649
5.1025,-0.443
5.105,-0.578
5.1075,0.552
5.11,-0.44
5.1125,-0.32
5.115,0.332
5.1175,-0.109
5.12,-0.67
5.1225,-0.155
5.125,0.796
5.1275,-0.53
5.13,-0.505
5.1325,0.463
5.135,-0.737
5.1375,-0.162
5.14,-0.0738
5.1425,-0.394
5.145,0.815
5.1475,0.022
5.15,-0.474
5.1525,0.311
5.155,-0.695
5.1575,-0.522
5.16,0.0491
5.1625,-0.594
5.165,0.506
5.1675,0.337
5.17,0.431
5.1725,-0.508
5.175,-0.385
5.1775,0.581
5.18,-0.269
5.1825,0.386
5.185,-0.0411
5.1875,-0.477
5.19,-0.29
5.1925,0.594
5.195,0.361
5.1975,0.47
5.2,0.346
5.2025,-0.293
5.205,0.336
5.2075,0.595
5.21,0.436
5.2125,-0.607
5.215,-0.552
5.2175,-0.231
5.22,-0.886
5.2225,0.531
5.225,-0.0393
5.2275,-0.301
5.23,-0.325
5.2325,0.686
5.235,-0.559
5.2375,-0.853
5.24,-0.417
5.2425,-0.239
5.245,0.616
5.2475,-0.183
5.25,0.608
5.2525,0.668
5.255,-0.497
5.2575,0.143
5.26,0.332
5.2625,0.352
5.265,0.289
5.2675,0.297
5.27,-0.0525
5.2725,0.0678
5.275,0.0526
5.2775,0.564
5.28,-0.36
5.2825,0.0617
5.285,0.307
5.2875,-0.519
5.29,-0.507
5.2925,0.753
5.295,0.324
5.2975,1
5.3,-0.625
5.3025,0.561
5.305,-0.99
5.3075,0.662
5.31,-0.165
5.3125,0.43
5.315,-0.687
5.3175,0.0303
5.32,-0.777
5.3225,1.05
5.325,-0.559
5.3275,-0.693
5.33,0.811
5.3325,0.299
5.335,-0.609
5.3375,0.0953
5.34,-0.782
5.3425,-0.589
5.345,0.606
5.3475,-0.645
5.35,-0.723
5.3525,-0.579
5.355,0.33
5.3575,0.0745
5.36,1.06
5.3625,0.379
5.365,0.436
5.3675,-0.253
5.37,-0.23
5.3725,0.221
5.375,0.172
5.3775,0.166
5.38,-0.704
5.3825,1.16
5.385,0.472
5.3875,0.558
5.39,0.241
5.3925,-0.511
5.395,0.509
5.3975,0.0404
5.4,0.882
5.4025,-0.494
5.405,0.636
5.4075,0.108
5.41,0.572
5.4125,-0.363
5.415,0.547
5.4175,-0.406
5.42,-0.913
5.4225,-0.531
5.425,-0.442
5.4275,-0.138
5.43,-0.411
5.4325,0.0568
5.435,0.267
5.4375,-0.839
5.44,0.201
5.4425,0.13
5.445,0.232
5.4475,-0.77
5.45,0.904
5.4525,-0.0268
5.455,0.928
5.4575,-0.684
5.46,-0.615
5.4625,-0.322
5.465,0.644
5.4675,0.768
5.47,-0.0265
5.4725,0.933
5.475,0.375
5.4775,-0.247
5.48,0.62
5.4825,-0.329
5.485,-0.717
5.4875,0.408
5.49,0.327
5.4925,-0.197
5.495,-0.216
5.4975,0.13
5.5,0.585
5.5025,-0.0909
5.505,-0.217
5.5075,-0.376
5.51,-0.797
5.5125,-0.509
5.515,-0.163
5.5175,-0.155
5.52,-0.467
5.5225,0.518
5.525,0.872
5.5275,0.158
5.53,0.337
5.5325,-0.222
5.535,0.194
5.5375,-0.689
5.54,-0.684
5.5425,0.548
5.545,-0.326
5.5475,0.182
5.55,-0.185
5.5525,-0.687
5.555,-0.113
5.5575,0.709
5.56,0.855
5.5625,0.574
5.565,0.477
5.5675,0.229
5.57,0.847
5.5725,0.0521
5.575,-0.73
5.5775,1.39
5.58,-0.0971
5.5825,0.0591
5.585,-0.907
5.5875,-0.586
5.59,-0.486
5.5925,-0.575
5.595,1.01
5.5975,-1.01
5.6,-0.47
5.6025,0.0858
5.605,0.527
5.6075,0.293
5.61,-0.641
5.6125,0.247
5.615,-0.306
5.6175,-0.173
5.62,0.695
5.6225,0.495
5.625,-0.263
5.6275,0.435
5.63,-0.186
5.6325,-0.366
5.635,0.119
5.6375,0.0876
5.64,0.0794
5.6425,0.0997
5.645,0.0722
5.6475,0.0392
5.65,0.0654
5.6525,0.0651
5.655,0.0704
5.6575,0.0824
5.66,0.0866
5.6625,0.13
5.665,0.148
5.6675,0.0792
5.67,0.0943
5.6725,0.115
5.675,0.0673
5.6775,0.114
5.68,0.104
5.6825,0.0728
5.685,0.0572
5.6875,0.0899
5.69,0.0358
5.6925,0.0847
5.695,0.0798
5.6975,0.122
5.7,0.0804
5.7025,0.113
5.705,0.0615
5.7075,0.12
5.71,0.0364
5.7125,0.071
5.715,0.0839
5.7175,0.0621
5.72,0.0518
5.7225,0.0564
5.725,0.0637
5.7275,0.0618
5.73,0.0412
5.7325,0.0833
5.735,0.0857
5.7375,0.0466
5.74,0.1
5.7425,0.0711
5.745,0.0769
5.7475,0.0663
5.75,0.0802
5.7525,0.123
5.755,0.0551
5.7575,0.0923
5.76,0.106
5.7625,0.0849
5.765,0.0774
5.7675,0.0464
5.77,0.054
5.7725,0.0362
5.775,0.0807
5.7775,0.0765
5.78,0.067
5.7825,0.0761
5.785,0.117
5.7875,0.112
5.79,0.0432
5.7925,0.102
5.795,0.0895
5.7975,0.0412
5.8,0.116
5.8025,0.0646
5.805,0.0514
5.8075,0.0726
5.81,0.107
5.8125,0.0832
5.815,0.0435
5.8175,0.0583
5.82,0.0912
5.8225,0.0517
5.825,0.0981
5.8275,0.0301
5.83,0.0461
5.8325,0.0839
5.835,0.0775
5.8375,0.13
5.84,0.0708
5.8425,0.092
5.845,0.107
5.8475,0.0914
5.85,0.0932
5.8525,0.0817
5.855,0.0642
5.8575,0.0671
5.86,0.0623
5.8625,0.0607
5.865,0.0592
5.8675,0.0652
5.87,0.109
5.8725,0.0592
5.875,0.0532
5.8775,0.0598
5.88,0.072
5.8825,0.0915
5.885,0.109
5.8875,0.0979
5.89,0.0695
5.8925,0.0624
5.895,0.0979
5.8975,0.0466
5.9,0.134
5.9025,0.0898
5.905,0.107
5.9075,0.0817
5.91,0.0719
5.9125,0.0393
5.915,0.122
5.9175,0.121
5.92,0.0719
5.9225,0.0571
5.925,0.0364
5.9275,0.1
5.93,0.0778
5.9325,0.0683
5.935,0.076
5.9375,0.056
5.94,0.0556
5.9425,0.13
5.945,0.0609
5.9475,0.0895
5.95,0.128
5.9525,0.0418
5.955,0.088
5.9575,0.0841
5.96,0.083
5.9625,0.0579
5.965,0.0866
5.9675,0.0751
5.97,0.0546
5.9725,0.123
5.975,0.0502
5.9775,0.0737
5.98,0.131
5.9825,0.104
5.985,0.0187
5.9875,0.051
5.99,0.128
5.9925,0.068
5.995,0.0944
5.9975,0.0967
6,0.0532
6.0025,0.117
6.005,0.0918
6.0075,0.127
6.01,0.0987
6.0125,0.0981
6.015,0.0733
6.0175,0.0521
6.02,0.0773
6.0225,0.08
6.025,0.0449
6.0275,0.0602
6.03,0.11
6.0325,0.131
6.035,0.113
6.0375,0.0939
6.04,0.098
6.0425,0.0368
6.045,0.0662
6.0475,0.0696
6.05,0.0508
6.0525,0.0384
6.055,0.0862
6.0575,0.105
6.06,0.0955
6.0625,0.125
6.065,0.124
6.0675,0.0504
6.07,0.104
6.0725,0.0607
6.075,0.0461
6.0775,0.0702
6.08,0.0627
6.0825,0.122
6.085,0.0778
6.0875,0.0768
6.09,0.0608
6.0925,0.0625
6.095,0.123
6.0975,0.107
6.1,0.0482
6.1025,0.0612
6.105,0.0291
6.1075,0.0635
6.11,0.0437
6.1125,0.0621
6.115,0.0813
6.1175,0.0879
6.12,0.0455
6.1225,0.0566
6.125,0.119
6.1275,0.0313
6.13,0.102
6.1325,0.0767
6.135,0.118
6.1375,0.0976
6.14,0.0842
6.1425,0.0754
6.145,0.0732
6.1475,0.105
6.15,0.0658
6.1525,0.122
6.155,0.101
6.1575,0.0753
6.16,0.0535
6.1625,0.0509
6.165,0.0514
6.1675,0.115
6.17,0.0544
6.1725,0.0399
6.175,0.0944
6.1775,0.0343
6.18,0.101
6.1825,0.0998
6.185,0.0585
6.1875,0.0432
6.19,0.0965
6.1925,0.0767
6.195,0.064
6.1975,0.0969
6.2,0.0499
6.2025,0.121
6.205,0.0482
6.2075,0.0729
6.21,0.0913
6.2125,0.0299
6.215,0.0397
6.2175,0.0789
6.22,0.0498
6.2225,0.0969
6.225,0.144
6.2275,0.0267
6.23,0.105
6.2325,0.0196
6.235,0.0372
6.2375,0.0986
6.24,0.125
6.2425,0.0965
6.245,0.131
6.2475,0.0499
6.25,0.0801
6.2525,0.09
6.255,0.0543
6.2575,0.103
6.26,0.0662
6.2625,0.0977
6.265,0.0594
6.2675,0.0459
6.27,0.108
6.2725,0.115
6.275,0.103
6.2775,0.108
6.28,0.102
6.2825,0.103
6.285,0.0728
6.2875,0.0315
6.29,0.0929
6.2925,0.0972
6.295,0.0287
6.2975,0.103
6.3,0.0768
6.3025,0.0721
6.305,0.122
6.3075,0.091
6.31,0.0362
6.3125,0.135
6.315,0.0766
6.3175,0.0793
6.32,0.0779
6.3225,0.0968
6.325,0.0474
6.3275,0.121
6.33,0.0851
6.3325,0.121
6.335,0.122
6.3375,0.0594
6.34,0.0685
6.3425,0.036
6.345,0.0967
6.3475,0.04
6.35,0.0881
6.3525,0.056
6.355,0.117
6.3575,0.0287
6.36,0.0923
6.3625,0.097
6.365,0.0359
6.3675,0.0823
6.37,0.0632
6.3725,0.0842
6.375,0.0801
6.3775,0.0683
6.38,0.0814
6.3825,0.151
6.385,0.0544
6.3875,0.0704
6.39,0.133
6.3925,0.0451
6.395,0.0544
6.3975,0.123
6.4,0.0487
6.4025,0.0723
6.405,0.0534
6.4075,0.105
6.41,0.0998
6.4125,0.0895
6.415,0.0761
6.4175,0.112
6.42,0.0725
6.4225,0.0499
6.425,0.142
6.4275,0.0853
6.43,0.0962
6.4325,0.0899
6.435,0.111
6.4375,0.0667
6.44,0.138
6.4425,0.0752
6.445,0.0906
6.4475,0.0814
6.45,0.0996
6.4525,0.1
6.455,0.0955
6.4575,0.0442
6.46,0.109
6.4625,0.0661
6.465,0.0647
6.4675,0.0772
6.47,0.127
6.4725,0.0868
6.475,0.0552
6.4775,0.0547
6.48,0.0805
6.4825,0.0963
6.485,0.0298
6.4875,0.104
6.49,0.0548
6.4925,0.0492
6.495,0.121
6.4975,0.107
6.5,0.0922
6.5025,0.0956
6.505,0.0759
6.5075,0.0811
6.51,0.0617
6.5125,0.0726
6.515,0.0904
6.5175,0.0623
6.52,0.0311
6.5225,0.104
6.525,0.106
6.5275,0.0609
6.53,0.0967
6.5325,0.101
6.535,0.0896
6.5375,0.0692
6.54,0.115
6.5425,0.0597
6.545,0.12
6.5475,0.0778
6.55,0.104
6.5525,0.026
6.555,0.0697
6.5575,0.0906
6.56,0.0548
6.5625,0.0677
6.565,0.0553
6.5675,0.0674
6.57,0.0926
6.5725,0.12
6.575,0.0937
6.5775,0.0812
6.58,0.0636
6.5825,0.103
6.585,0.0847
6.5875,0.122
6.59,0.12
6.5925,0.0649
6.595,0.122
6.5975,0.0442
6.6,0.119
6.6025,0.0644
6.605,0.0687
6.6075,0.0986
6.61,0.134
6.6125,0.0398
6.615,0.0589
6.6175,0.101
6.62,0.0766
6.6225,0.0902
6.625,0.135
6.6275,0.0508
6.63,0.0799
6.6325,0.0312
6.635,0.0545
6.6375,0.0589
6.64,0.074
6.6425,0.0826
6.645,0.0921
6.6475,0.0573
6.65,0.0387
6.6525,0.0937
6.655,0.138
6.6575,0.051
6.66,0.0451
6.6625,0.097
6.665,0.027
6.6675,0.0811
6.67,0.0563
6.6725,0.108
6.675,0.0559
6.6775,0.0989
6.68,0.0694
6.6825,0.132
6.685,0.0927
6.6875,0.0943
6.69,0.103
6.6925,0.128
6.695,0.0322
6.6975,0.0878
6.7,0.0741
6.7025,0.125
6.705,0.0352
6.7075,0.0523
6.71,0.0649
6.7125,0.0711
6.715,0.0952
6.7175,0.104
6.72,0.0771
6.7225,0.0941
6.725,0.092
6.7275,0.0778
6.73,0.0316
6.7325,0.075
6.735,0.096
6.7375,0.105
6.74,0.0922
6.7425,0.047
6.745,0.0839
6.7475,0.0419
6.75,0.0472
6.7525,0.118
6.755,0.04
6.7575,0.0872
6.76,0.143
6.7625,0.0593
6.765,0.0648
6.7675,0.0971
6.77,0.0866
6.7725,0.141
6.775,0.129
6.7775,0.0653
6.78,0.0996
6.7825,0.0605
6.785,0.0518
6.7875,0.141
6.79,0.135
6.7925,0.065
6.795,0.0422
6.7975,0.1
6.8,0.0899
6.8025,0.0815
6.805,0.0723
6.8075,0.13
6.81,0.109
6.8125,0.0521
6.815,0.124
6.8175,0.077
6.82,0.0998
6.8225,0.123
6.825,0.0792
6.8275,0.0923
6.83,0.0975
6.8325,0.103
6.835,0.0351
6.8375,0.0648
6.84,0.0985
6.8425,0.0498
6.845,0.0687
6.8475,0.0959
6.85,0.116
6.8525,0.0832
6.855,0.0679
6.8575,0.0788
6.86,0.0517
6.8625,0.138
6.865,0.0806
6.8675,0.127
6.87,0.025
6.8725,0.0284
6.875,0.0774
6.8775,0.0877
6.88,0.0279
6.8825,0.0521
6.885,0.128
6.8875,0.0766
6.89,0.115
6.8925,0.118
6.895,0.0397
6.8975,0.0768
6.9,0.0687
6.9025,0.062
6.905,0.0795
6.9075,0.0504
6.91,0.0621
6.9125,0.0906
6.915,0.0319
6.9175,0.0982
6.92,0.106
6.9225,0.0543
6.925,0.114
6.9275,0.0606
6.93,0.0554
6.9325,0.0712
6.935,0.077
6.9375,0.0744
6.94,0.124
6.9425,0.0684
6.945,0.0859
6.9475,0.109
6.95,0.0339
6.9525,0.113
6.955,0.0678
6.9575,0.0589
6.96,0.0534
6.9625,0.0802
6.965,0.104
6.9675,0.0311
6.97,0.0958
6.9725,0.0262
6.975,0.0265
6.9775,0.122
6.98,0.046
6.9825,0.0884
6.985,0.111
6.9875,0.076
6.99,0.102
6.9925,0.0953
6.995,0.0654
6.9975,0.0704
7,0.0868
7.0025,0.107
7.005,0.114
7.0075,0.0967
7.01,0.113
7.0125,0.0742
7.015,0.0778
7.0175,0.0481
7.02,0.0708
7.0225,0.0579
7.025,0.0971
7.0275,0.0368
7.03,0.0612
7.0325,0.0592
7.035,0.103
7.0375,0.0751
7.04,0.0373
7.0425,0.0659
7.045,0.101
7.0475,0.0552
7.05,0.0813
7.0525,0.0521
7.055,0.121
7.0575,0.109
7.06,0.0779
7.0625,0.0876
7.065,0.0686
7.0675,0.123
7.07,0.102
7.0725,0.0818
7.075,0.0976
7.0775,0.106
7.08,0.0614
7.0825,0.0561
7.085,0.065
7.0875,0.114
7.09,0.106
7.0925,0.0869
7.095,0.104
7.0975,0.0788
7.1,0.0487
7.1025,0.0369
7.105,0.0656
7.1075,0.0961
7.11,0.0593
7.1125,0.135
7.115,0.0736
7.1175,0.0931
7.12,0.0957
7.1225,0.0908
7.125,0.108
7.1275,0.0322
7.13,0.0516
7.1325,0.0455
7.135,0.099
7.1375,0.0555
7.14,0.116
7.1425,0.0856
7.145,0.0624
7.1475,0.0837
7.15,0.0821
7.1525,0.014
7.155,0.105
7.1575,0.0688
7.16,0.121
7.1625,0.123
7.165,0.09
7.1675,0.11
7.17,-0.218
7.1725,-0.16
7.175,0.753
7.1775,1.27
7.18,-0.526
7.1825,-0.267
7.185,-0.188
7.1875,0.0195
7.19,-0.332
7.1925,0.817
7.195,0.322
7.1975,0.18
7.2,-0.256
7.2025,1.06
7.205,0.475
7.2075,-0.784
7.21,0.747
7.2125,-0.655
7.215,0.739
7.2175,0.611
7.22,-0.351
7.2225,-0.0557
7.225,0.176
7.2275,-0.476
7.23,0.342
7.2325,-0.278
7.235,0.358
7.2375,-0.489
7.24,-0.767
7.2425,0.791
7.245,-0.483
7.2475,0.985
7.25,-0.263
7.2525,-0.555
7.255,-0.66
7.2575,0.382
7.26,0.663
7.2625,-0.431
7.265,-0.824
7.2675,-0.649
7.27,0.242
7.2725,-0.0547
7.275,-0.684
7.2775,-0.806
7.28,-0.444
7.2825,-0.236
7.285,-0.678
7.2875,0.539
7.29,0.165
7.2925,0.909
7.295,-0.261
7.2975,0.654
7.3,0.596
7.3025,0.235
7.305,0.371
7.3075,0.181
7.31,0.509
7.3125,-0.687
7.315,0.909
7.3175,0.667
7.32,-0.52
7.3225,0.355
7.325,0.976
7.3275,0.175
7.33,0.0501
7.3325,-0.64
7.335,0.403
7.3375,0.494
7.34,0.477
7.3425,-0.181
7.345,0.866
7.3475,0.394
7.35,-0.186
7.3525,-0.691
7.355,0.19
7.3575,0.314
7.36,-0.0562
7.3625,-0.371
7.365,0.769
7.3675,0.512
7.37,-0.612
7.3725,-0.126
7.375,0.167
7.3775,0.879
7.38,0.00131
7.3825,-0.46
7.385,0.199
7.3875,-0.418
7.39,-0.0285
7.3925,-0.806
7.395,0.833
7.3975,0.278
7.4,0.189
7.4025,0.132
7.405,1.02
7.4075,-0.808
7.41,-0.714
7.4125,0.331
7.415,0.571
7.4175,-0.652
7.42,0.813
7.4225,-0.142
7.425,0.68
7.4275,0.0882
7.43,-0.0298
7.4325,-0.516
7.435,0.313
7.4375,0.2
7.44,-0.256
7.4425,0.0906
7.445,-0.78
7.4475,-0.92
7.45,0.903
7.4525,1.05
7.455,0.975
7.4575,-0.815
7.46,0.906
7.4625,-0.184
7.465,-0.0358
7.4675,0.5
7.47,0.274
7.4725,-0.462
7.475,-0.837
7.4775,0.43
7.48,0.314
7.4825,0.953
7.485,-0.273
7.4875,0.275
7.49,0.582
7.4925,0.793
7.495,0.84
7.4975,0.29
7.5,-0.644
7.5025,-0.56
7.505,0.746
7.5075,-0.401
7.51,1.06
7.5125,0.929
7.515,-0.676
7.5175,0.154
7.52,0.0207
7.5225,0.457
7.525,0.553
7.5275,0.652
7.53,-0.71
7.5325,-0.195
7.535,0.153
7.5375,0.78
7.54,0.253
7.5425,0.36
7.545,-0.759
7.5475,-0.754
7.55,0.472
7.5525,-0.645
7.555,-0.391
7.5575,-0.0487
7.56,0.317
7.5625,-0.748
7.565,-0.454
7.5675,-0.561
7.57,-0.0602
7.5725,-0.744
7.575,0.154
7.5775,-0.127
7.58,-0.727
7.5825,-0.297
7.585,0.615
7.5875,0.266
7.59,-0.343
7.5925,-0.266
7.595,-0.695
7.5975,-0.605
7.6,-0.209
7.6025,0.191
7.605,0.815
7.6075,0.757
7.61,-0.115
7.6125,-0.0276
7.615,0.308
7.6175,0.0213
7.62,-0.571
7.6225,0.593
7.625,0.362
7.6275,0.556
7.63,-0.28
7.6325,-0.152
7.635,-0.324
7.6375,-0.318
7.64,-0.0352
7.6425,-0.1
7.645,0.555
7.6475,-0.0275
7.65,-0.701
7.6525,-0.704
7.655,0.577
7.6575,-0.437
7.66,0.484
7.6625,0.306
7.665,0.205
7.6675,0.569
7.67,0.133
7.6725,0.851
7.675,0.989
7.6775,0.384
7.68,0.379
7.6825,-0.29
7.685,0.165
7.6875,-0.505
7.69,-0.374
7.6925,0.264
7.695,0.564
7.6975,0.178
7.7,0.544
7.7025,-0.526
7.705,0.794
7.7075,-0.703
7.71,0.164
7.7125,0.768
7.715,0.233
7.7175,-0.605
7.72,-0.619
7.7225,-0.0708
7.725,-0.549
7.7275,-0.416
7.73,-0.756
7.7325,-0.623
7.735,-1.08
7.7375,0.0752
7.74,0.723
7.7425,0.229
7.745,-1.08
7.7475,-0.398
7.75,0.653
7.7525,0.273
7.755,0.16
7.7575,0.863
7.76,0.6
7.7625,-0.655
7.765,-0.73
7.7675,-0.321
7.77,0.534
7.7725,0.272
7.775,-0.915
7.7775,0.257
7.78,0.88
7.7825,-0.739
7.785,0.102
7.7875,-0.38
7.79,0.145
7.7925,0.0188
7.795,-0.184
7.7975,0.0481
7.8,0.54
7.8025,-0.309
7.805,-0.401
7.8075,0.922
7.81,0.012
7.8125,0.123
7.815,0.106
7.8175,0.049
7.82,0.0854
7.8225,0.048
7.825,0.0572
7.8275,0.0807
7.83,0.0624
7.8325,0.0263
7.835,0.0499
7.8375,0.109
7.84,0.117
7.8425,0.101
7.845,0.119
7.8475,0.11
7.85,0.0581
7.8525,0.0725
7.855,0.0669
7.8575,0.0665
7.86,0.139
7.8625,0.0519
7.865,0.128
7.8675,0.0721
7.87,0.0853
7.8725,0.101
7.875,0.0547
7.8775,0.103
7.88,0.0963
7.8825,0.115
7.885,0.0969
7.8875,0.0563
7.89,0.0948
7.8925,0.0731
7.895,0.0375
7.8975,0.0726
7.9,0.142
7.9025,0.131
7.905,0.0901
7.9075,0.0575
7.91,0.0628
7.9125,0.0898
7.915,0.0883
7.9175,0.105
7.92,0.0828
7.9225,0.104
7.925,0.052
7.9275,0.0626
7.93,0.11
7.9325,0.0917
7.935,0.047
7.9375,0.119
7.94,0.043
7.9425,0.0807
7.945,0.0534
7.9475,0.0669
7.95,0.0918
7.9525,0.101
7.955,0.0974
7.9575,0.0524
7.96,0.11
7.9625,0.0303
7.965,0.046
7.9675,0.0745
7.97,0.0598
7.9725,0.104
7.975,0.106
7.9775,0.0357
7.98,0.0939
7.9825,0.088
7.985,0.0749
7.9875,0.115
7.99,0.0591
7.9925,0.122
7.995,0.127
7.9975,0.0539
8,0.132
8.0025,0.0433
8.005,0.0529
8.0075,0.0815
8.01,0.104
8.0125,0.124
8.015,0.117
8.0175,0.0662
8.02,0.0849
8.0225,0.102
8.025,0.0257
8.0275,0.0383
8.03,0.106
8.0325,0.0415
8.035,0.101
8.0375,0.0589
8.04,0.0952
8.0425,0.0727
8.045,0.115
8.0475,0.0375
8.05,0.0319
8.0525,0.0858
8.055,0.107
8.0575,0.0818
8.06,0.0781
8.0625,0.0617
8.065,0.109
8.0675,0.0661
8.07,0.111
8.0725,0.032
8.075,0.0765
8.0775,0.0686
8.08,0.0967
8.0825,0.0851
8.085,0.0945
8.0875,0.0468
8.09,0.0539
8.0925,0.103
8.095,0.0455
8.0975,0.0972
8.1,0.0532
8.1025,0.113
8.105,0.0429
8.1075,0.0971
8.11,0.0972
8.1125,0.0656
8.115,0.0594
8.1175,0.0715
8.12,0.0611
8.1225,0.0524
8.125,0.101
8.1275,0.0798
8.13,0.0714
8.1325,0.123
8.135,0.0899
8.1375,0.104
8.14,0.0535
8.1425,0.0262
8.145,0.0458
8.1475,0.0318
8.15,0.0695
8.1525,0.0861
8.155,0.0806
8.1575,0.128
8.16,0.13
8.1625,0.109
8.165,0.0866
8.1675,0.0554
8.17,0.0705
8.1725,0.0541
8.175,0.103
8.1775,0.0154
8.18,0.106
8.1825,0.0877
8.185,0.0418
8.1875,0.0456
8.19,0.0896
8.1925,0.156
8.195,0.0396
8.1975,0.0398
8.2,0.0527
8.2025,0.0348
8.205,0.111
8.2075,0.0545
8.21,0.0608
8.2125,0.0701
8.215,0.0697
8.2175,0.0778
8.22,0.0578
8.2225,0.0979
8.225,0.0597
8.2275,0.0943
8.23,0.0316
8.2325,0.0877
8.235,0.115
8.2375,0.12
8.24,0.0989
8.2425,0.0948
8.245,0.0425
8.2475,0.115
8.25,0.11
8.2525,0.083
8.255,0.07
8.2575,0.0873
8.26,0.0662
8.2625,0.106
8.265,0.125
8.2675,0.0331
8.27,0.107
8.2725,0.0819
8.275,0.103
8.2775,0.0573
8.28,0.0852
8.2825,0.0508
8.285,0.0442
8.2875,0.0728
8.29,0.0333
8.2925,0.0263
8.295,0.112
8.2975,0.0756
8.3,0.142
8.3025,0.128
8.305,0.0889
8.3075,0.0649
8.31,0.0541
8.3125,0.0454
8.315,0.108
8.3175,0.0829
8.32,0.0988
8.3225,0.0438
8.325,0.0972
8.3275,0.0566
8.33,0.1
8.3325,0.053
8.335,0.095
8.3375,0.0382
8.34,0.086
8.3425,0.0926
8.345,0.111
8.3475,0.0831
8.35,0.0976
8.3525,0.0983
8.355,0.114
8.3575,0.0594
8.36,0.0772
8.3625,0.0748
8.365,0.05
8.3675,0.0511
8.37,0.0384
8.3725,0.0685
8.375,0.06
8.3775,0.054
8.38,0.115
8.3825,0.0904
8.385,0.0891
8.3875,0.0993
8.39,0.0619
8.3925,0.109
8.395,0.073
8.3975,0.0446
8.4,0.0381
8.4025,0.0882
8.405,0.0568
8.4075,0.0286
8.41,0.109
8.4125,0.0359
8.415,0.0708
8.4175,0.139
8.42,0.044
8.4225,0.0824
8.425,0.0545
8.4275,0.0758
8.43,0.0485
8.4325,0.1
8.435,0.0482
8.4375,0.0855
8.44,0.0684
8.4425,0.0257
8.445,0.116
8.4475,0.059
8.45,0.102
8.4525,0.0472
8.455,0.0695
8.4575,0.0689
8.46,0.0608
8.4625,0.0953
8.465,0.0524
8.4675,0.122
8.47,0.119
8.4725,0.0998
8.475,0.119
8.4775,0.12
8.48,0.115
8.4825,0.0442
8.485,0.0944
8.4875,0.0846
8.49,0.106
8.4925,0.0808
8.495,0.108
8.4975,0.1
8.5,0.0959
8.5025,0.116
8.505,0.123
8.5075,0.0428
8.51,0.108
8.5125,0.107
8.515,0.0608
8.5175,0.0743
8.52,0.102
8.5225,0.0509
8.525,0.0968
8.5275,0.0795
8.53,0.0416
8.5325,0.0322
8.535,0.0794
8.5375,0.0452
8.54,0.0996
8.5425,0.0458
8.545,0.104
8.5475,0.0541
8.55,0.0522
8.5525,0.0407
8.555,0.0865
8.5575,0.0985
8.56,0.121
8.5625,0.122
8.565,0.112
8.5675,0.0661
8.57,0.054
8.5725,0.108
8.575,0.0527
8.5775,-0.202
8.58,0.547
8.5825,0.51
8.585,1.22
8.5875,0.86
8.59,-0.849
8.5925,1.05
8.595,0.965
8.5975,-0.1
8.6,0.0716
8.6025,-0.7
8.605,-0.214
8.6075,-0.79
8.61,0.854
8.6125,0.966
8.615,0.0467
8.6175,0.646
8.62,-0.285
8.6225,-0.338
8.625,0.564
8.6275,-0.202
8.63,-0.636
8.6325,0.145
8.635,-0.263
8.6375,-0.0275
8.64,-0.45
8.6425,1.03
8.645,-0.488
8.6475,-0.589
8.65,0.0392
8.6525,0.354
8.655,1.09
8.6575,0.365
8.66,-0.363
8.6625,-0.855
8.665,0.838
8.6675,0.675
8.67,-0.4
8.6725,0.756
8.675,0.51
8.6775,-0.407
8.68,0.206
8.6825,-0.13
8.685,-0.437
8.6875,0.947
8.69,0.339
8.6925,0.239
8.695,0.843
8.6975,-0.785
8.7,0.169
8.7025,0.467
8.705,-0.533
8.7075,-0.464
8.71,0.256
8.7125,-0.123
8.715,0.165
8.7175,0.11
8.72,0.165
8.7225,-0.171
8.725,0.851
8.7275,0.313
8.73,0.959
8.7325,0.564
8.735,-0.199
8.7375,0.429
8.74,-0.181
8.7425,-0.215
8.745,0.576
8.7475,-0.688
8.75,-0.34
8.7525,-0.818
8.755,1.03
8.7575,0.446
8.76,0.185
8.7625,-0.974
8.765,0.41
8.7675,-0.676
8.77,-0.401
8.7725,0.556
8.775,-0.192
8.7775,0.175
8.78,0.12
8.7825,-0.413
8.785,0.719
8.7875,0.621
8.79,-0.155
8.7925,-0.203
8.795,-0.673
8.7975,0.505
8.8,0.0971
8.8025,0.145
8.805,0.818
8.8075,0.162
8.81,0.336
8.8125,1.03
8.815,-0.0579
8.8175,0.31
8.82,0.0231
8.8225,0.594
8.825,0.351
8.8275,-0.494
8.83,-0.214
8.8325,0.302
8.835,-0.917
8.8375,0.617
8.84,-0.0616
8.8425,-0.386
8.845,-0.416
8.8475,-0.193
8.85,0.221
8.8525,0.716
8.855,0.328
8.8575,0.485
8.86,-0.717
8.8625,-0.455
8.865,0.582
8.8675,0.586
8.87,0.495
8.8725,0.175
8.875,0.183
8.8775,0.951
8.88,0.696
8.8825,0.672
8.885,0.696
8.8875,-0.328
8.89,-0.0549
8.8925,-0.308
8.895,0.34
8.8975,0.463
8.9,-0.104
8.9025,0.168
8.905,0.737
8.9075,-0.781
8.91,0.856
8.9125,-0.696
8.915,-0.35
8.9175,0.166
8.92,-0.493
8.9225,-0.269
8.925,-0.197
8.9275,0.691
8.93,0.748
8.9325,-0.671
8.935,0.891
8.9375,0.612
8.94,0.416
8.9425,0.294
8.945,-0.287
8.9475,0.386
8.95,0.225
8.9525,-0.175
8.955,0.441
8.9575,-0.252
8.96,-0.898
8.9625,-0.273
8.965,0.118
8.9675,0.133
8.97,-0.237
8.9725,0.576
8.975,-0.685
8.9775,0.0612
8.98,-0.571
8.9825,0.549
8.985,-0.307
8.9875,0.274
8.99,-0.609
8.9925,0.627
8.995,-0.401
8.9975,0.365
9,0.27
9.0025,0.671
9.005,-0.0594
9.0075,0.967
9.01,-0.668
9.0125,0.313
9.015,0.47
9.0175,0.0224
9.02,0.0895
9.0225,-0.764
9.025,0.237
9.0275,0.00375
9.03,-0.209
9.0325,-0.962
9.035,0.232
9.0375,0.531
9.04,-0.47
9.0425,0.382
9.045,-0.281
9.0475,-0.635
9.05,-0.184
9.0525,0.727
9.055,-0.685
9.0575,-0.165
9.06,0.476
9.0625,-0.483
9.065,0.266
9.0675,0.0194
9.07,-0.117
9.0725,0.978
9.075,-0.0357
9.0775,0.777
9.08,0.854
9.0825,-0.0814
9.085,0.38
9.0875,-0.0859
9.09,1.07
9.0925,0.059
9.095,-0.643
9.0975,-0.514
9.1,-0.349
9.1025,-0.489
9.105,0.39
9.1075,0.97
9.11,0.138
9.1125,-0.293
9.115,-0.495
9.1175,0.74
9.12,-0.0795
9.1225,0.856
9.125,-0.386
9.1275,0.527
9.13,0.123
9.1325,-0.641
9.135,-0.293
9.1375,0.235
9.14,-0.0496
9.1425,0.552
9.145,-0.902
9.1475,-0.818
9.15,0.358
9.1525,-0.102
9.155,0.581
9.1575,0.963
9.16,-0.449
9.1625,-0.147
9.165,-0.0326
9.1675,-0.238
9.17,-0.401
9.1725,-0.558
9.175,0.292
9.1775,0.771
9.18,-0.145
9.1825,0.139
9.185,-0.0281
9.1875,0.509
9.19,-0.0141
9.1925,-0.533
9.195,0.393
9.1975,-0.508
9.2,-0.31
9.2025,-0.545
9.205,-0.423
9.2075,-0.722
9.21,-0.0517
9.2125,0.29
9.215,1.02
9.2175,0.00386
9.22,0.0559
9.2225,0.0735
9.225,0.0949
9.2275,0.0829
9.23,0.0888
9.2325,0.0615
9.235,0.0786
9.2375,0.125
9.24,0.0731
9.2425,0.0831
9.245,0.0561
9.2475,0.107
9.25,0.127
9.2525,0.103
9.255,0.0362
9.2575,0.111
9.26,0.0811
9.2625,0.0992
9.265,0.0929
9.2675,0.0825
9.27,0.0943
9.2725,0.118
9.275,0.107
9.2775,0.0863
9.28,0.0197
9.2825,0.0554
9.285,0.122
9.2875,0.0743
9.29,0.116
9.2925,0.103
9.295,0.0326
9.2975,0.116
9.3,0.093
9.3025,0.0617
9.305,0.117
9.3075,0.0617
9.31,0.0715
9.3125,0.0512
9.315,0.0865
9.3175,0.0749
9.32,0.0412
9.3225,0.0553
9.325,0.0862
9.3275,0.0161
9.33,0.134
9.3325,0.0877
9.335,0.0594
9.3375,0.0404
9.34,0.0589
9.3425,0.0494
9.345,0.0768
9.3475,0.0983
9.35,0.0697
9.3525,0.117
9.355,0.0853
9.3575,0.101
9.36,0.0684
9.3625,0.112
9.365,0.0575
9.3675,0.0793
9.37,0.0271
9.3725,0.0758
9.375,0.113
9.3775,0.0546
9.38,0.0499
9.3825,0.044
9.385,0.0593
9.3875,0.0829
9.39,0.0413
9.3925,0.0217
9.395,0.0536
9.3975,0.0504
9.4,0.0329
9.4025,0.041
9.405,0.135
9.4075,0.0732
9.41,0.11
9.4125,0.101
9.415,0.101
9.4175,0.0977
9.42,0.0598
9.4225,0.0968
9.425,0.0658
9.4275,0.125
9.43,0.116
9.4325,0.139
9.435,0.0639
9.4375,0.096
9.44,0.0656
9.4425,0.0755
9.445,0.11
9.4475,0.0562
9.45,0.0601
9.4525,0.0501
9.455,0.115
9.4575,0.0574
9.46,0.0622
9.4625,0.0567
9.465,0.0976
9.4675,0.0908
9.47,0.064
9.4725,0.0402
9.475,0.0448
9.4775,0.0931
9.48,0.105
9.4825,0.0857
9.485,0.136
9.4875,0.106
9.49,0.0898
9.4925,0.094
9.495,0.145
9.4975,0.0768
9.5,0.0597
9.5025,0.0482
9.505,0.0292
9.5075,0.112
9.51,0.049
9.5125,0.117
9.515,0.0749
9.5175,0.116
9.52,0.0861
9.5225,0.0426
9.525,0.0992
9.5275,0.132
9.53,0.0409
9.5325,0.137
9.535,0.104
9.5375,0.0735
9.54,0.0625
9.5425,0.116
9.545,0.0838
9.5475,0.0456
9.55,0.116
9.5525,0.0974
9.555,0.0852
9.5575,0.0347
9.56,0.0647
9.5625,0.0637
9.565,0.0357
9.5675,0.0348
9.57,0.112
9.5725,0.0734
9.575,0.106
9.5775,0.121
9.58,0.11
9.5825,0.0606
9.585,0.0701
9.5875,0.115
9.59,0.11
9.5925,0.0715
9.595,0.117
9.5975,0.0901
9.6,0.0768
9.6025,0.0881
9.605,0.0687
9.6075,0.0468
9.61,0.0765
9.6125,0.0359
9.615,0.115
9.6175,0.0837
9.62,0.0168
9.6225,0.0957
9.625,0.0765
9.6275,0.0862
9.63,0.0977
9.6325,0.0769
9.635,0.134
9.6375,0.103
9.64,0.135
9.6425,0.0293
9.645,0.0515
9.6475,0.0952
9.65,0.0824
9.6525,0.0604
9.655,0.11
9.6575,0.0655
9.66,0.131
9.6625,0.0924
9.665,0.0997
9.6675,0.0805
9.67,0.0476
9.6725,0.118
9.675,0.101
9.6775,0.0865
9.68,0.13
9.6825,0.0481
9.685,0.0534
9.6875,0.106
9.69,0.0944
9.6925,0.123
9.695,0.116
9.6975,0.111
9.7,0.0538
9.7025,0.0586
9.705,0.0936
9.7075,0.104
9.71,0.0587
9.7125,0.0887
9.715,0.105
9.7175,0.0734
9.72,0.122
9.7225,0.11
9.725,0.035
9.7275,0.0917
9.73,0.0276
9.7325,0.0706
9.735,0.0809
9.7375,0.075
9.74,0.104
9.7425,0.109
9.745,0.123
9.7475,0.115
9.75,0.0391
9.7525,0.0863
9.755,0.101
9.7575,0.0673
9.76,0.0649
9.7625,0.0718
9.765,0.0697
9.7675,0.0778
9.77,0.0471
9.7725,0.0515
9.775,0.14
9.7775,0.129
9.78,0.0936
9.7825,0.0918
9.785,0.0614
9.7875,0.054
9.79,0.0784
9.7925,0.0883
9.795,0.0723
9.7975,0.125
9.8,0.138
9.8025,0.0347
9.805,0.0736
9.8075,0.0878
9.81,0.0561
9.8125,0.0493
9.815,0.0837
9.8175,0.093
9.82,0.0692
9.8225,0.0613
9.825,0.0991
9.8275,0.0759
9.83,0.126
9.8325,0.0758
9.835,0.0797
9.8375,0.105
9.84,0.0802
9.8425,0.0753
9.845,0.0542
9.8475,0.0909
9.85,0.0443
9.8525,0.121
9.855,0.0589
9.8575,0.0385
9.86,0.0503
9.8625,0.0682
9.865,0.0639
9.8675,0.0881
9.87,0.0651
9.8725,0.0742
9.875,0.088
9.8775,0.0662
9.88,0.129
9.8825,0.04
9.885,0.0926
9.8875,0.0498
9.89,0.0815
9.8925,0.133
9.895,0.0512
9.8975,0.0893
9.9,0.0949
9.9025,0.0825
9.905,0.0714
9.9075,0.134
9.91,0.0812
9.9125,0.0696
9.915,0.0491
9.9175,0.12
9.92,0.0588
9.9225,0.0709
9.925,0.0962
9.9275,0.115
9.93,0.0632
9.9325,0.0627
9.935,0.083
9.9375,0.101
9.94,0.0578
9.9425,0.08
9.945,0.0722
9.9475,0.0392
9.95,0.0453
9.9525,0.107
9.955,0.0851
9.9575,0.0477
9.96,0.101
9.9625,0.085
9.965,0.119
9.9675,0.0262
9.97,0.0829
9.9725,0.118
9.975,0.0628
9.9775,0.101
9.98,0.115
9.9825,0.111
9.985,-0.0373
9.9875,-0.598
9.99,0.553
9.9925,-0.79
9.995,-0.0494
9.9975,0.0717
10,-0.42
10.0025,1.14
10.005,-0.175
10.0075,0.0122
10.01,-0.555
10.0125,-0.132
10.015,-0.705
10.0175,0.0651
10.02,0.773
10.0225,0.345
10.025,0.657
10.0275,-0.125
10.03,0.331
10.0325,0.942
10.035,0.508
10.0375,-0.596
10.04,-0.122
10.0425,-0.154
10.045,0.144
10.0475,0.338
10.05,0.311
10.0525,-0.195
10.055,0.741
10.0575,0.31
10.06,0.363
10.0625,0.276
10.065,1
10.0675,0.842
10.07,0.28
10.0725,-0.761
10.075,0.755
10.0775,-0.0886
10.08,-0.0869
10.0825,0.129
10.085,-0.53
10.0875,0.535
10.09,0.498
10.0925,-0.373
10.095,-0.953
10.0975,0.747
10.1,0.0943
10.1025,-0.356
10.105,0.641
10.1075,0.614
10.11,-0.287
10.1125,-0.282
10.115,-0.427
10.1175,0.0257
10.12,0.653
10.1225,0.246
10.125,0.773
10.1275,-0.732
10.13,-0.307
10.1325,0.6
10.135,0.508
10.1375,-0.797
10.14,-0.52
10.1425,-0.506
10.145,-0.917
10.1475,0.853
10.15,-0.12
10.1525,0.311
10.155,0.334
10.1575,0.0934
10.16,0.265
10.1625,0.184
10.165,-0.262
10.1675,-0.63
10.17,-0.2
10.1725,-0.222
10.175,-0.535
10.1775,0.687
10.18,0.966
10.1825,-0.657
10.185,0.151
10.1875,-0.526
10.19,0.655
10.1925,0.277
10.195,-0.299
10.1975,-0.482
10.2,-0.00254
10.2025,0.185
10.205,-0.0422
10.2075,-0.175
10.21,0.921
10.2125,-0.701
10.215,-0.353
10.2175,-0.149
10.22,-0.0447
10.2225,0.534
10.225,0.217
10.2275,0.064
10.23,0.782
10.2325,-0.166
10.235,-0.181
10.2375,0.821
10.24,0.194
10.2425,-0.234
10.245,0.015
10.2475,0.261
10.25,-0.677
10.2525,-0.953
10.255,-0.495
10.2575,0.649
10.26,0.896
10.2625,-0.346
10.265,-0.268
10.2675,0.173
10.27,-0.291
10.2725,-0.373
10.275,-0.206
10.2775,0.226
10.28,1.15
10.2825,0.104
10.285,0.161
10.2875,0.866
10.29,-0.65
10.2925,-0.292
10.295,-0.276
10.2975,0.51
10.3,0.275
10.3025,0.1
10.305,0.115
10.3075,0.674
10.31,-0.0378
10.3125,0.907
10.315,0.869
10.3175,0.517
10.32,-0.259
10.3225,0.946
10.325,0.652
10.3275,0.771
10.33,0.793
10.3325,0.721
10.335,-0.708
10.3375,-0.299
10.34,-0.687
10.3425,-0.736
10.345,-0.779
10.3475,-0.434
10.35,-0.029
10.3525,-0.309
10.355,-0.188
10.3575,0.706
10.36,-0.203
10.3625,0.688
10.365,-0.0729
10.3675,0.109
10.37,-0.812
10.3725,0.106
10.375,-0.777
10.3775,0.467
10.38,-0.424
10.3825,1.02
10.385,0.443
10.3875,-0.133
10.39,-1.04
10.3925,0.992
10.395,-0.41
10.3975,-0.838
10.4,-0.0666
10.4025,-0.0634
10.405,0.427
10.4075,0.12
10.41,0.539
10.4125,0.671
10.415,0.132
10.4175,-0.441
10.42,0.0406
10.4225,-0.109
10.425,-0.102
10.4275,0.345
10.43,0.239
10.4325,0.79
10.435,-1.13
10.4375,-0.601
10.44,0.538
10.4425,-0.849
10.445,0.31
10.4475,0.593
10.45,-0.772
10.4525,0.575
10.455,1.06
10.4575,0.989
10.46,-0.529
10.4625,0.543
10.465,-0.034
10.4675,0.396
10.47,0.929
10.4725,-0.703
10.475,1.04
10.4775,0.403
10.48,0.00619
10.4825,-0.692
10.485,0.403
10.4875,-0.274
10.49,1.31
10.4925,-0.205
10.495,-0.594
10.4975,0.894
10.5,0.203
10.5025,0.143
10.505,0.391
10.5075,0.154
10.51,0.925
10.5125,-0.511
10.515,-0.258
10.5175,-0.254
10.52,1.32
10.5225,-0.338
10.525,0.844
10.5275,-0.422
10.53,-0.526
10.5325,0.111
10.535,-0.686
10.5375,0.439
10.54,0.552
10.5425,0.982
10.545,0.383
10.5475,0.0204
10.55,-0.706
10.5525,-0.131
10.555,-0.245
10.5575,-0.57
10.56,-0.0635
10.5625,-0.8
10.565,0.821
10.5675,-0.344
10.57,-0.0173
10.5725,0.395
10.575,0.781
10.5775,0.903
10.58,-0.126
10.5825,0.341
10.585,0.263
10.5875,0.296
10.59,-0.651
10.5925,0.749
10.595,0.0494
10.5975,0.901
10.6,-0.505
10.6025,0.595
10.605,0.793
10.6075,0.763
10.61,0.684
10.6125,-0.0932
10.615,0.153
10.6175,0.453
10.62,0.367
10.6225,-0.118
10.625,0.524
10.6275,0.0983
10.63,0.0862
10.6325,0.0638
10.635,0.0792
10.6375,0.0829
10.64,0.111
10.6425,0.0792
10.645,0.0911
10.6475,0.0291
10.65,0.00897
10.6525,0.066
10.655,0.0687
10.6575,0.0297
10.66,0.0954
10.6625,0.0693
10.665,0.122
10.6675,0.0871
10.67,0.102
10.6725,0.0724
10.675,0.0717
10.6775,0.0707
10.68,0.127
10.6825,0.0729
10.685,0.101
10.6875,0.0981
10.69,0.118
10.6925,0.0573
10.695,0.129
10.6975,0.0789
10.7,0.123
10.7025,0.145
10.705,0.0821
10.7075,0.111
10.71,0.0669
10.7125,0.1
10.715,0.105
10.7175,0.0852
10.72,0.0846
10.7225,0.0195
10.725,0.0655
10.7275,0.0901
10.73,0.101
10.7325,0.054
10.735,0.0795
10.7375,0.0513
10.74,0.0678
10.7425,0.0481
10.745,0.112
10.7475,0.0528
10.75,0.00938
10.7525,0.0469
10.755,0.0903
10.7575,0.131
10.76,0.0334
10.7625,0.047
10.765,0.108
10.7675,0.0795
10.77,0.114
10.7725,0.0306
10.775,0.0452
10.7775,0.0555
10.78,0.0454
10.7825,0.119
10.785,0.0514
10.7875,0.0652
10.79,0.035
10.7925,0.0353
10.795,0.116
10.7975,0.039
10.8,0.107
10.8025,0.0584
10.805,0.0697
10.8075,0.112
10.81,0.0691
10.8125,0.0767
10.815,0.099
10.8175,0.0736
10.82,0.0641
10.8225,0.0562
10.825,0.0698
10.8275,0.0777
10.83,0.0793
10.8325,0.135
10.835,0.129
10.8375,0.0954
10.84,0.0674
10.8425,0.076
10.845,0.0541
10.8475,0.121
10.85,0.0301
10.8525,0.0793
10.855,0.0377
10.8575,0.0726
10.86,0.0507
10.8625,0.115
10.865,0.0402
10.8675,0.104
10.87,0.0845
10.8725,0.0826
10.875,0.07
10.8775,0.0394
10.88,0.112
10.8825,0.0356
10.885,0.112
10.8875,0.103
10.89,0.0918
10.8925,0.083
10.895,0.107
10.8975,0.0993
10.9,0.108
10.9025,0.0831
10.905,0.107
10.9075,0.0507
10.91,0.0579
10.9125,0.0472
10.915,0.0979
10.9175,0.05
10.92,0.0589
10.9225,0.0778
10.925,0.0849
10.9275,0.11
10.93,0.0919
10.9325,0.045
10.935,0.0822
10.9375,0.0437
10.94,0.0866
10.9425,0.0608
10.945,0.103
10.9475,0.083
10.95,0.0837
10.9525,0.105
10.955,0.0788
10.9575,0.0796
10.96,0.0862
10.9625,0.134
10.965,0.0738
10.9675,0.052
10.97,0.0621
10.9725,0.0526
10.975,0.108
10.9775,0.117
10.98,0.0662
10.9825,0.0935
10.985,0.0833
10.9875,0.0477
10.99,0.0982
10.9925,0.0971
10.995,0.0264
10.9975,0.0285
11,0.027
11.0025,0.0884
11.005,0.0595
11.0075,0.0807
11.01,0.082
11.0125,0.0643
11.015,0.0409
11.0175,0.0813
11.02,0.0583
11.0225,0.0585
11.025,0.0748
11.0275,0.0788
11.03,0.105
11.0325,0.103
11.035,0.113
11.0375,0.0655
11.04,0.133
11.0425,0.02
11.045,0.052
11.0475,0.0354
11.05,0.117
11.0525,0.0884
11.055,0.0298
11.0575,0.0957
11.06,0.0462
11.0625,0.0559
11.065,0.0334
11.0675,0.0678
11.07,0.107
11.0725,0.125
11.075,0.0622
11.0775,0.0625
11.08,0.0648
11.0825,0.0682
11.085,0.111
11.0875,0.0471
11.09,0.0617
11.0925,0.103
11.095,0.114
11.0975,0.0747
11.1,0.0543
11.1025,0.118
11.105,0.12
11.1075,0.0499
11.11,0.0539
11.1125,0.0531
11.115,0.106
11.1175,0.0269
11.12,0.116
11.1225,0.0377
11.125,0.0379
11.1275,0.0614
11.13,0.0485
11.1325,0.104
11.135,0.0763
11.1375,0.0999
11.14,0.0631
11.1425,0.0536
11.145,0.0698
11.1475,0.124
11.15,0.0937
11.1525,0.0393
11.155,0.0645
11.1575,0.053
11.16,0.0569
11.1625,0.0703
11.165,0.0505
11.1675,0.0778
11.17,0.053
11.1725,0.0432
11.175,0.0544
11.1775,0.126
11.18,0.0723
11.1825,0.0716
11.185,0.111
11.1875,0.119
11.19,0.113
11.1925,0.055
11.195,0.0827
11.1975,0.0624
11.2,0.0378
11.2025,0.0622
11.205,0.0273
11.2075,0.0483
11.21,0.0573
11.2125,0.0756
11.215,0.0625
11.2175,0.0506
11.22,0.12
11.2225,0.0958
11.225,0.123
11.2275,0.103
11.23,0.0935
11.2325,0.0547
11.235,0.0804
11.2375,0.0813
11.24,0.11
11.2425,0.0873
11.245,0.0496
11.2475,0.0652
11.25,0.0862
11.2525,0.0734
11.255,0.0831
11.2575,0.0808
11.26,0.0714
11.2625,0.103
11.265,0.0711
11.2675,0.0603
11.27,0.076
11.2725,0.148
11.275,0.147
11.2775,0.088
11.28,0.08
11.2825,0.104
11.285,0.0573
11.2875,0.132
11.29,0.0935
11.2925,0.0485
11.295,0.0403
11.2975,0.0683
11.3,0.0636
11.3025,0.0654
11.305,0.0313
11.3075,0.0881
11.31,0.0928
11.3125,0.0416
11.315,0.0838
11.3175,0.052
11.32,0.0674
11.3225,0.053
11.325,0.0695
11.3275,0.0742
11.33,0.0925
11.3325,0.0924
11.335,0.105
11.3375,0.0772
11.34,0.113
11.3425,0.098
11.345,0.13
11.3475,0.0614
11.35,0.0615
11.3525,0.05
11.355,0.0839
11.3575,0.0935
11.36,0.0192
11.3625,0.0566
11.365,0.0365
11.3675,0.0418
11.37,0.0543
11.3725,0.0754
11.375,0.0784
11.3775,0.104
11.38,0.0307
11.3825,0.117
11.385,0.0809
11.3875,0.0107
11.39,0.0625
11.3925,0.0913
11.395,0.354
11.3975,-0.894
11.4,-0.247
11.4025,-0.204
11.405,0.312
11.4075,0.113
11.41,0.761
11.4125,-0.558
11.415,-0.261
11.4175,-0.76
11.42,-0.787
11.4225,-0.0733
11.425,-0.521
11.4275,0.254
11.43,-1.01
11.4325,-0.0253
11.435,-0.997
11.4375,0.599
11.44,-0.152
11.4425,-0.974
11.445,0.64
11.4475,0.415
11.45,-0.432
11.4525,0.759
11.455,-0.423
11.4575,0.162
11.46,-0.283
11.4625,0.405
11.465,0.0764
11.4675,-0.032
11.47,-0.34
11.4725,0.529
11.475,1.09
11.4775,0.944
11.48,0.565
11.4825,-0.414
11.485,-0.202
11.4875,0.615
11.49,0.0193
11.4925,0.863
11.495,-0.336
11.4975,-0.135
11.5,-0.649
11.5025,-0.443
11.505,-0.578
11.5075,0.552
11.51,-0.44
11.5125,-0.32
11.515,0.332
11.5175,-0.109
11.52,-0.67
11.5225,-0.155
11.525,0.796
11.5275,-0.53
11.53,-0.505
11.5325,0.463
11.535,-0.737
11.5375,-0.162
11.54,-0.0738
11.5425,-0.394
11.545,0.815
11.5475,0.022
11.55,-0.474
11.5525,0.311
11.555,-0.695
11.5575,-0.522
11.56,0.0491
11.5625,-0.594
11.565,0.506
11.5675,0.337
11.57,0.431
11.5725,-0.508
11.575,-0.385
11.5775,0.581
11.58,-0.269
11.5825,0.386
11.585,-0.0411
11.5875,-0.477
11.59,-0.29
11.5925,0.594
11.595,0.361
11.5975,0.47
11.6,0.346
11.6025,-0.293
11.605,0.336
11.6075,0.595
11.61,0.436
11.6125,-0.607
11.615,-0.552
11.6175,-0.231
11.62,-0.886
11.6225,0.531
11.625,-0.0393
11.6275,-0.301
11.63,-0.325
11.6325,0.686
11.635,-0.559
11.6375,-0.853
11.64,-0.417
11.6425,-0.239
11.645,0.616
11.6475,-0.183
11.65,0.608
11.6525,0.668
11.655,-0.497
11.6575,0.143
11.66,0.332
11.6625,0.352
11.665,0.289
11.6675,0.297
11.67,-0.0525
11.6725,0.0678
11.675,0.0526
11.6775,0.564
11.68,-0.36
11.6825,0.0617
11.685,0.307
11.6875,-0.519
11.69,-0.507
11.6925,0.753
11.695,0.324
11.6975,1
11.7,-0.625
11.7025,0.561
11.705,-0.99
11.7075,0.662
11.71,-0.165
11.7125,0.43
11.715,-0.687
11.7175,0.0303
11.72,-0.777
11.7225,1.05
11.725,-0.559
11.7275,-0.693
11.73,0.811
11.7325,0.299
11.735,-0.609
11.7375,0.0953
11.74,-0.782
11.7425,-0.589
11.745,0.606
11.7475,-0.645
11.75,-0.723
11.7525,-0.579
11.755,0.33
11.7575,0.0745
11.76,1.06
11.7625,0.379
11.765,0.436
11.7675,-0.253
11.77,-0.23
11.7725,0.221
11.775,0.172
11.7775,0.166
11.78,-0.704
11.7825,1.16
11.785,0.472
11.7875,0.558
11.79,0.241
11.7925,-0.511
11.795,0.509
11.7975,0.0404
11.8,0.882
11.8025,-0.494
11.805,0.636
11.8075,0.108
11.81,0.572
11.8125,-0.363
11.815,0.547
11.8175,-0.406
11.82,-0.913
11.8225,-0.531
11.825,-0.442
11.8275,-0.138
11.83,-0.411
11.8325,0.0568
11.835,0.267
11.8375,-0.839
11.84,0.201
11.8425,0.13
11.845,0.232
11.8475,-0.77
11.85,0.904
11.8525,-0.0268
11.855,0.928
11.8575,-0.684
11.86,-0.615
11.8625,-0.322
11.865,0.644
11.8675,0.768
11.87,-0.0265
11.8725,0.933
11.875,0.375
11.8775,-0.247
11.88,0.62
11.8825,-0.329
11.885,-0.717
11.8875,0.408
11.89,0.327
11.8925,-0.197
11.895,-0.216
11.8975,0.13
11.9,0.585
11.9025,-0.0909
11.905,-0.217
11.9075,-0.376
11.91,-0.797
11.9125,-0.509
11.915,-0.163
11.9175,-0.155
11.92,-0.467
11.9225,0.518
11.925,0.872
11.9275,0.158
11.93,0.337
11.9325,-0.222
11.935,0.194
11.9375,-0.689
11.94,-0.684
11.9425,0.548
11.945,-0.326
11.9475,0.182
11.95,-0.185
11.9525,-0.687
11.955,-0.113
11.9575,0.709
11.96,0.855
11.9625,0.574
11.965,0.477
11.9675,0.229
11.97,0.847
11.9725,0.0521
11.975,-0.73
11.9775,1.39
11.98,-0.0971
11.9825,0.0591
11.985,-0.907
11.9875,-0.586
11.99,-0.486
11.9925,-0.575
11.995,1.01
11.9975,-1.01
12,-0.47
12.0025,0.0858
12.005,0.527
12.0075,0.293
12.01,-0.641
12.0125,0.247
12.015,-0.306
12.0175,-0.173
12.02,0.695
12.0225,0.495
12.025,-0.263
12.0275,0.435
12.03,-0.186
12.0325,-0.366
12.035,0.119
12.0375,0.0876
12.04,0.0794
12.0425,0.0997
12.045,0.0722
12.0475,0.0392
12.05,0.0654
12.0525,0.0651
12.055,0.0704
12.0575,0.0824
12.06,0.0866
12.0625,0.13
12.065,0.148
12.0675,0.0792
12.07,0.0943
12.0725,0.115
12.075,0.0673
12.0775,0.114
12.08,0.104
12.0825,0.0728
12.085,0.0572
12.0875,0.0899
12.09,0.0358
12.0925,0.0847
12.095,0.0798
12.0975,0.122
12.1,0.0804
12.1025,0.113
12.105,0.0615
12.1075,0.12
12.11,0.0364
12.1125,0.071
12.115,0.0839
12.1175,0.0621
12.12,0.0518
12.1225,0.0564
12.125,0.0637
12.1275,0.0618
12.13,0.0412
12.1325,0.0833
12.135,0.0857
12.1375,0.0466
12.14,0.1
12.1425,0.0711
12.145,0.0769
12.1475,0.0663
12.15,0.0802
12.1525,0.123
12.155,0.0551
12.1575,0.0923
12.16,0.106
12.1625,0.0849
12.165,0.0774
12.1675,0.0464
12.17,0.054
12.1725,0.0362
12.175,0.0807
12.1775,0.0765
12.18,0.067
12.1825,0.0761
12.185,0.117
12.1875,0.112
12.19,0.0432
12.1925,0.102
12.195,0.0895
12.1975,0.0412
12.2,0.116
12.2025,0.0646
12.205,0.0514
12.2075,0.0726
12.21,0.107
12.2125,0.0832
12.215,0.0435
12.2175,0.0583
12.22,0.0912
12.2225,0.0517
12.225,0.0981
12.2275,0.0301
12.23,0.0461
12.2325,0.0839
12.235,0.0775
12.2375,0.13
12.24,0.0708
12.2425,0.092
12.245,0.107
12.2475,0.0914
12.25,0.0932
12.2525,0.0817
12.255,0.0642
12.2575,0.0671
12.26,0.0623
12.2625,0.0607
12.265,0.0592
12.2675,0.0652
12.27,0.109
12.2725,0.0592
12.275,0.0532
12.2775,0.0598
12.28,0.072
12.2825,0.0915
12.285,0.109
12.2875,0.0979
12.29,0.0695
12.2925,0.0624
12.295,0.0979
12.2975,0.0466
12.3,0.134
12.3025,0.0898
12.305,0.107
12.3075,0.0817
12.31,0.0719
12.3125,0.0393
12.315,0.122
12.3175,0.121
12.32,0.0719
12.3225,0.0571
12.325,0.0364
12.3275,0.1
12.33,0.0778
12.3325,0.0683
12.335,0.076
12.3375,0.056
12.34,0.0556
12.3425,0.13
12.345,0.0609
12.3475,0.0895
12.35,0.128
12.3525,0.0418
12.355,0.088
12.3575,0.0841
12.36,0.083
12.3625,0.0579
12.365,0.0866
12.3675,0.0751
12.37,0.0546
12.3725,0.123
12.375,0.0502
12.3775,0.0737
12.38,0.131
12.3825,0.104
12.385,0.0187
12.3875,0.051
12.39,0.128
12.3925,0.068
12.395,0.0944
12.3975,0.0967
12.4,0.0532
12.4025,0.117
12.405,0.0918
12.4075,0.127
12.41,0.0987
12.4125,0.0981
12.415,0.0733
12.4175,0.0521
12.42,0.0773
12.4225,0.08
12.425,0.0449
12.4275,0.0602
12.43,0.11
12.4325,0.131
12.435,0.113
12.4375,0.0939
12.44,0.098
12.4425,0.0368
12.445,0.0662
12.4475,0.0696
12.45,0.0508
12.4525,0.0384
12.455,0.0862
12.4575,0.105
12.46,0.0955
12.4625,0.125
12.465,0.124
12.4675,0.0504
12.47,0.104
12.4725,0.0607
12.475,0.0461
12.4775,0.0702
12.48,0.0627
12.4825,0.122
12.485,0.0778
12.4875,0.0768
12.49,0.0608
12.4925,0.0625
12.495,0.123
12.4975,0.107
12.5,0.0482
12.5025,0.0612
12.505,0.0291
12.5075,0.0635
12.51,0.0437
12.5125,0.0621
12.515,0.0813
12.5175,0.0879
12.52,0.0455
12.5225,0.0566
12.525,0.119
12.5275,0.0313
12.53,0.102
12.5325,0.0767
12.535,0.118
12.5375,0.0976
12.54,0.0842
12.5425,0.0754
12.545,0.0732
12.5475,0.105
12.55,0.0658
12.5525,0.122
12.555,0.101
12.5575,0.0753
12.56,0.0535
12.5625,0.0509
12.565,0.0514
12.5675,0.115
12.57,0.0544
12.5725,0.0399
12.575,0.0944
12.5775,0.0343
12.58,0.101
12.5825,0.0998
12.585,0.0585
12.5875,0.0432
12.59,0.0965
12.5925,0.0767
12.595,0.064
12.5975,0.0969
12.6,0.0499
12.6025,0.121
12.605,0.0482
12.6075,0.0729
12.61,0.0913
12.6125,0.0299
12.615,0.0397
12.6175,0.0789
12.62,0.0498
12.6225,0.0969
12.625,0.144
12.6275,0.0267
12.63,0.105
12.6325,0.0196
12.635,0.0372
12.6375,0.0986
12.64,0.125
12.6425,0.0965
12.645,0.131
12.6475,0.0499
12.65,0.0801
12.6525,0.09
12.655,0.0543
12.6575,0.103
12.66,0.0662
12.6625,0.0977
12.665,0.0594
12.6675,0.0459
12.67,0.108
12.6725,0.115
12.675,0.103
12.6775,0.108
12.68,0.102
12.6825,0.103
12.685,0.0728
12.6875,0.0315
12.69,0.0929
12.6925,0.0972
12.695,0.0287
12.6975,0.103
12.7,0.0768
12.7025,0.0721
12.705,0.122
12.7075,0.091
12.71,0.0362
12.7125,0.135
12.715,0.0766
12.7175,0.0793
12.72,0.0779
12.7225,0.0968
12.725,0.0474
12.7275,0.121
12.73,0.0851
12.7325,0.121
12.735,0.122
12.7375,0.0594
12.74,0.0685
12.7425,0.036
12.745,0.0967
12.7475,0.04
12.75,0.0881
12.7525,0.056
12.755,0.117
12.7575,0.0287
12.76,0.0923
12.7625,0.097
12.765,0.0359
12.7675,0.0823
12.77,0.0632
12.7725,0.0842
12.775,0.0801
12.7775,0.0683
12.78,0.0814
12.7825,0.151
12.785,0.0544
12.7875,0.0704
12.79,0.133
12.7925,0.0451
12.795,0.0544
12.7975,0.123
12.8,0.0487
12.8025,0.0723
12.805,0.0534
12.8075,0.105
12.81,0.0998
12.8125,0.0895
12.815,0.0761
12.8175,0.112
12.82,0.0725
12.8225,0.0499
12.825,0.142
12.8275,0.0853
12.83,0.0962
12.8325,0.0899
12.835,0.111
12.8375,0.0667
12.84,0.138
12.8425,0.0752
12.845,0.0906
12.8475,0.0814
12.85,0.0996
12.8525,0.1
12.855,0.0955
12.8575,0.0442
12.86,0.109
12.8625,0.0661
12.865,0.0647
12.8675,0.0772
12.87,0.127
12.8725,0.0868
12.875,0.0552
12.8775,0.0547
12.88,0.0805
12.8825,0.0963
12.885,0.0298
12.8875,0.104
12.89,0.0548
12.8925,0.0492
12.895,0.121
12.8975,0.107
12.9,0.0922
12.9025,0.0956
12.905,0.0759
12.9075,0.0811
12.91,0.0617
12.9125,0.0726
12.915,0.0904
12.9175,0.0623
12.92,0.0311
12.9225,0.104
12.925,0.106
12.9275,0.0609
12.93,0.0967
12.9325,0.101
12.935,0.0896
12.9375,0.0692
12.94,0.115
12.9425,0.0597
12.945,0.12
12.9475,0.0778
12.95,0.104
12.9525,0.026
12.955,0.0697
12.9575,0.0906
12.96,0.0548
12.9625,0.0677
12.965,0.0553
12.9675,0.0674
12.97,0.0926
12.9725,0.12
12.975,0.0937
12.9775,0.0812
12.98,0.0636
12.9825,0.103
12.985,0.0847
12.9875,0.122
12.99,0.12
12.9925,0.0649
12.995,0.122
12.9975,0.0442
13,0.119
13.0025,0.0644
13.005,0.0687
13.0075,0.0986
13.01,0.134
13.0125,0.0398
13.015,0.0589
13.0175,0.101
13.02,0.0766
13.0225,0.0902
13.025,0.135
13.0275,0.0508
13.03,0.0799
13.0325,0.0312
13.035,0.0545
13.0375,0.0589
13.04,0.074
13.0425,0.0826
13.045,0.0921
13.0475,0.0573
13.05,0.0387
13.0525,0.0937
13.055,0.138
13.0575,0.051
13.06,0.0451
13.0625,0.097
13.065,0.027
13.0675,0.0811
13.07,0.0563
13.0725,0.108
13.075,0.0559
13.0775,0.0989
13.08,0.0694
13.0825,0.132
13.085,0.0927
13.0875,0.0943
13.09,0.103
13.0925,0.128
13.095,0.0322
13.0975,0.0878
13.1,0.0741
13.1025,0.125
13.105,0.0352
13.1075,0.0523
13.11,0.0649
13.1125,0.0711
13.115,0.0952
13.1175,0.104
13.12,0.0771
13.1225,0.0941
13.125,0.092
13.1275,0.0778
13.13,0.0316
13.1325,0.075
13.135,0.096
13.1375,0.105
13.14,0.0922
13.1425,0.047
13.145,0.0839
13.1475,0.0419
13.15,0.0472
13.1525,0.118
13.155,0.04
13.1575,0.0872
13.16,0.143
13.1625,0.0593
13.165,0.0648
13.1675,0.0971
13.17,0.0866
13.1725,0.141
13.175,0.129
13.1775,0.0653
13.18,0.0996
13.1825,0.0605
13.185,0.0518
13.1875,0.141
13.19,0.135
13.1925,0.065
13.195,0.0422
13.1975,0.1
13.2,0.0899
13.2025,0.0815
13.205,0.0723
13.2075,0.13
13.21,0.109
13.2125,0.0521
13.215,0.124
13.2175,0.077
13.22,0.0998
13.2225,0.123
13.225,0.0792
13.2275,0.0923
13.23,0.0975
13.2325,0.103
13.235,0.0351
13.2375,0.0648
13.24,0.0985
13.2425,0.0498
13.245,0.0687
13.2475,0.0959
13.25,0.116
13.2525,0.0832
13.255,0.0679
13.2575,0.0788
13.26,0.0517
13.2625,0.138
13.265,0.0806
13.2675,0.127
13.27,0.025
13.2725,0.0284
13.275,0.0774
13.2775,0.0877
13.28,0.0279
13.2825,0.0521
13.285,0.128
13.2875,0.0766
13.29,0.115
13.2925,0.118
13.295,0.0397
13.2975,0.0768
13.3,0.0687
13.3025,0.062
13.305,0.0795
13.3075,0.0504
13.31,0.0621
13.3125,0.0906
13.315,0.0319
13.3175,0.0982
13.32,0.106
13.3225,0.0543
13.325,0.114
13.3275,0.0606
13.33,0.0554
13.3325,0.0712
13.335,0.077
13.3375,0.0744
13.34,0.124
13.3425,0.0684
13.345,0.0859
13.3475,0.109
13.35,0.0339
13.3525,0.113
13.355,0.0678
13.3575,0.0589
13.36,0.0534
13.3625,0.0802
13.365,0.104
13.3675,0.0311
13.37,0.0958
13.3725,0.0262
13.375,0.0265
13.3775,0.122
13.38,0.046
13.3825,0.0884
13.385,0.111
13.3875,0.076
13.39,0.102
13.3925,0.0953
13.395,0.0654
13.3975,0.0704
13.4,0.0868
13.4025,0.107
13.405,0.114
13.4075,0.0967
13.41,0.113
13.4125,0.0742
13.415,0.0778
13.4175,0.0481
13.42,0.0708
13.4225,0.0579
13.425,0.0971
13.4275,0.0368
13.43,0.0612
13.4325,0.0592
13.435,0.103
13.4375,0.0751
13.44,0.0373
13.4425,0.0659
13.445,0.101
13.4475,0.0552
13.45,0.0813
13.4525,0.0521
13.455,0.121
13.4575,0.109
13.46,0.0779
13.4625,0.0876
13.465,0.0686
13.4675,0.123
13.47,0.102
13.4725,0.0818
13.475,0.0976
13.4775,0.106
13.48,0.0614
13.4825,0.0561
13.485,0.065
13.4875,0.114
13.49,0.106
13.4925,0.0869
13.495,0.104
13.4975,0.0788
13.5,0.0487
13.5025,0.0369
13.505,0.0656
13.5075,0.0961
13.51,0.0593
13.5125,0.135
13.515,0.0736
13.5175,0.0931
13.52,0.0957
13.5225,0.0908
13.525,0.108
13.5275,0.0322
13.53,0.0516
13.5325,0.0455
13.535,0.099
13.5375,0.0555
13.54,0.116
13.5425,0.0856
13.545,0.0624
13.5475,0.0837
13.55,0.0821
13.5525,0.014
13.555,0.105
13.5575,0.0688
13.56,0.121
13.5625,0.123
13.565,0.09
13.5675,0.11
13.57,-0.218
13.5725,-0.16
13.575,0.753
13.5775,1.27
13.58,-0.526
13.5825,-0.267
13.585,-0.188
13.5875,0.0195
13.59,-0.332
13.5925,0.817
13.595,0.322
13.5975,0.18
13.6,-0.256
13.6025,1.06
13.605,0.475
13.6075,-0.784
13.61,0.747
13.6125,-0.655
13.615,0.739
13.6175,0.611
13.62,-0.351
13.6225,-0.0557
13.625,0.176
13.6275,-0.476
13.63,0.342
13.6325,-0.278
13.635,0.358
13.6375,-0.489
13.64,-0.767
13.6425,0.791
13.645,-0.483
13.6475,0.985
13.65,-0.263
13.6525,-0.555
13.655,-0.66
13.6575,0.382
13.66,0.663
13.6625,-0.431
13.665,-0.824
13.6675,-0.649
13.67,0.242
13.6725,-0.0547
13.675,-0.684
13.6775,-0.806
13.68,-0.444
13.6825,-0.236
13.685,-0.678
13.6875,0.539
13.69,0.165
13.6925,0.909
13.695,-0.261
13.6975,0.654
13.7,0.596
13.7025,0.235
13.705,0.371
13.7075,0.181
13.71,0.509
13.7125,-0.687
13.715,0.909
13.7175,0.667
13.72,-0.52
13.7225,0.355
13.725,0.976
13.7275,0.175
13.73,0.0501
13.7325,-0.64
13.735,0.403
13.7375,0.494
13.74,0.477
13.7425,-0.181
13.745,0.866
13.7475,0.394
13.75,-0.186
13.7525,-0.691
13.755,0.19
13.7575,0.314
13.76,-0.0562
13.7625,-0.371
13.765,0.769
13.7675,0.512
13.77,-0.612
13.7725,-0.126
13.775,0.167
13.7775,0.879
13.78,0.00131
13.7825,-0.46
13.785,0.199
13.7875,-0.418
13.79,-0.0285
13.7925,-0.806
13.795,0.833
13.7975,0.278
13.8,0.189
13.8025,0.132
13.805,1.02
13.8075,-0.808
13.81,-0.714
13.8125,0.331
13.815,0.571
13.8175,-0.652
13.82,0.813
13.8225,-0.142
13.825,0.68
13.8275,0.0882
13.83,-0.0298
13.8325,-0.516
13.835,0.313
13.8375,0.2
13.84,-0.256
13.8425,0.0906
13.845,-0.78
13.8475,-0.92
13.85,0.903
13.8525,1.05
13.855,0.975
13.8575,-0.815
13.86,0.906
13.8625,-0.184
13.865,-0.0358
13.8675,0.5
13.87,0.274
13.8725,-0.462
13.875,-0.837
13.8775,0.43
13.88,0.314
13.8825,0.953
13.885,-0.273
13.8875,0.275
13.89,0.582
13.8925,0.793
13.895,0.84
13.8975,0.29
13.9,-0.644
13.9025,-0.56
13.905,0.746
13.9075,-0.401
13.91,1.06
13.9125,0.929
13.915,-0.676
13.9175,0.154
13.92,0.0207
13.9225,0.457
13.925,0.553
13.9275,0.652
13.93,-0.71
13.9325,-0.195
13.935,0.153
13.9375,0.78
13.94,0.253
13.9425,0.36
13.945,-0.759
13.9475,-0.754
13.95,0.472
13.9525,-0.645
13.955,-0.391
13.9575,-0.0487
13.96,0.317
13.9625,-0.748
13.965,-0.454
13.9675,-0.561
13.97,-0.0602
13.9725,-0.744
13.975,0.154
13.9775,-0.127
13.98,-0.727
13.9825,-0.297
13.985,0.615
13.9875,0.266
13.99,-0.343
13.9925,-0.266
13.995,-0.695
13.9975,-0.605
14,-0.209
14.0025,0.191
14.005,0.815
14.0075,0.757
14.01,-0.115
14.0125,-0.0276
14.015,0.308
14.0175,0.0213
14.02,-0.571
14.0225,0.593
14.025,0.362
14.0275,0.556
14.03,-0.28
14.0325,-0.152
14.035,-0.324
14.0375,-0.318
14.04,-0.0352
14.0425,-0.1
14.045,0.555
14.0475,-0.0275
14.05,-0.701
14.0525,-0.704
14.055,0.577
14.0575,-0.437
14.06,0.484
14.0625,0.306
14.065,0.205
14.0675,0.569
14.07,0.133
14.0725,0.851
14.075,0.989
14.0775,0.384
14.08,0.379
14.0825,-0.29
14.085,0.165
14.0875,-0.505
14.09,-0.374
14.0925,0.264
14.095,0.564
14.0975,0.178
14.1,0.544
14.1025,-0.526
14.105,0.794
14.1075,-0.703
14.11,0.164
14.1125,0.768
14.115,0.233
14.1175,-0.605
14.12,-0.619
14.1225,-0.0708
14.125,-0.549
14.1275,-0.416
14.13,-0.756
14.1325,-0.623
14.135,-1.08
14.1375,0.0752
14.14,0.723
14.1425,0.229
14.145,-1.08
14.1475,-0.398
14.15,0.653
14.1525,0.273
14.155,0.16
14.1575,0.863
14.16,0.6
14.1625,-0.655
14.165,-0.73
14.1675,-0.321
14.17,0.534
14.1725,0.272
14.175,-0.915
14.1775,0.257
14.18,0.88
14.1825,-0.739
14.185,0.102
14.1875,-0.38
14.19,0.145
14.1925,0.0188
14.195,-0.184
14.1975,0.0481
14.2,0.54
14.2025,-0.309
14.205,-0.401
14.2075,0.922
14.21,0.012
14.2125,0.123
14.215,0.106
14.2175,0.049
14.22,0.0854
14.2225,0.048
14.225,0.0572
14.2275,0.0807
14.23,0.0624
14.2325,0.0263
14.235,0.0499
14.2375,0.109
14.24,0.117
14.2425,0.101
14.245,0.119
14.2475,0.11
14.25,0.0581
14.2525,0.0725
14.255,0.0669
14.2575,0.0665
14.26,0.139
14.2625,0.0519
14.265,0.128
14.2675,0.0721
14.27,0.0853
14.2725,0.101
14.275,0.0547
14.2775,0.103
14.28,0.0963
14.2825,0.115
14.285,0.0969
14.2875,0.0563
14.29,0.0948
14.2925,0.0731
14.295,0.0375
14.2975,0.0726
14.3,0.142
14.3025,0.131
14.305,0.0901
14.3075,0.0575
14.31,0.0628
14.3125,0.0898
14.315,0.0883
14.3175,0.105
14.32,0.0828
14.3225,0.104
14.325,0.052
14.3275,0.0626
14.33,0.11
14.3325,0.0917
14.335,0.047
14.3375,0.119
14.34,0.043
14.3425,0.0807
14.345,0.0534
14.3475,0.0669
14.35,0.0918
14.3525,0.101
14.355,0.0974
14.3575,0.0524
14.36,0.11
14.3625,0.0303
14.365,0.046
14.3675,0.0745
14.37,0.0598
14.3725,0.104
14.375,0.106
14.3775,0.0357
14.38,0.0939
14.3825,0.088
14.385,0.0749
14.3875,0.115
14.39,0.0591
14.3925,0.122
14.395,0.127
14.3975,0.0539
14.4,0.132
14.4025,0.0433
14.405,0.0529
14.4075,0.0815
14.41,0.104
14.4125,0.124
14.415,0.117
14.4175,0.0662
14.42,0.0849
14.4225,0.102
14.425,0.0257
14.4275,0.0383
14.43,0.106
14.4325,0.0415
14.435,0.101
14.4375,0.0589
14.44,0.0952
14.4425,0.0727
14.445,0.115
14.4475,0.0375
14.45,0.0319
14.4525,0.0858
14.455,0.107
14.4575,0.0818
14.46,0.0781
14.4625,0.0617
14.465,0.109
14.4675,0.0661
14.47,0.111
14.4725,0.032
14.475,0.0765
14.4775,0.0686
14.48,0.0967
14.4825,0.0851
14.485,0.0945
14.4875,0.0468
14.49,0.0539
14.4925,0.103
14.495,0.0455
14.4975,0.0972
14.5,0.0532
14.5025,0.113
14.505,0.0429
14.5075,0.0971
14.51,0.0972
14.5125,0.0656
14.515,0.0594
14.5175,0.0715
14.52,0.0611
14.5225,0.0524
14.525,0.101
14.5275,0.0798
14.53,0.0714
14.5325,0.123
14.535,0.0899
14.5375,0.104
14.54,0.0535
14.5425,0.0262
14.545,0.0458
14.5475,0.0318
14.55,0.0695
14.5525,0.0861
14.555,0.0806
14.5575,0.128
14.56,0.13
14.5625,0.109
14.565,0.0866
14.5675,0.0554
14.57,0.0705
14.5725,0.0541
14.575,0.103
14.5775,0.0154
14.58,0.106
14.5825,0.0877
14.585,0.0418
14.5875,0.0456
14.59,0.0896
14.5925,0.156
14.595,0.0396
14.5975,0.0398
14.6,0.0527
14.6025,0.0348
14.605,0.111
14.6075,0.0545
14.61,0.0608
14.6125,0.0701
14.615,0.0697
14.6175,0.0778
14.62,0.0578
14.6225,0.0979
14.625,0.0597
14.6275,0.0943
14.63,0.0316
14.6325,0.0877
14.635,0.115
14.6375,0.12
14.64,0.0989
14.6425,0.0948
14.645,0.0425
14.6475,0.115
14.65,0.11
14.6525,0.083
14.655,0.07
14.6575,0.0873
14.66,0.0662
14.6625,0.106
14.665,0.125
14.6675,0.0331
14.67,0.107
14.6725,0.0819
14.675,0.103
14.6775,0.0573
14.68,0.0852
14.6825,0.0508
14.685,0.0442
14.6875,0.0728
14.69,0.0333
14.6925,0.0263
14.695,0.112
14.6975,0.0756
14.7,0.142
14.7025,0.128
14.705,0.0889
14.7075,0.0649
14.71,0.0541
14.7125,0.0454
14.715,0.108
14.7175,0.0829
14.72,0.0988
14.7225,0.0438
14.725,0.0972
14.7275,0.0566
14.73,0.1
14.7325,0.053
14.735,0.095
14.7375,0.0382
14.74,0.086
14.7425,0.0926
14.745,0.111
14.7475,0.0831
14.75,0.0976
14.7525,0.0983
14.755,0.114
14.7575,0.0594
14.76,0.0772
14.7625,0.0748
14.765,0.05
14.7675,0.0511
14.77,0.0384
14.7725,0.0685
14.775,0.06
14.7775,0.054
14.78,0.115
14.7825,0.0904
14.785,0.0891
14.7875,0.0993
14.79,0.0619
14.7925,0.109
14.795,0.073
14.7975,0.0446
14.8,0.0381
14.8025,0.0882
14.805,0.0568
14.8075,0.0286
14.81,0.109
14.8125,0.0359
14.815,0.0708
14.8175,0.139
14.82,0.044
14.8225,0.0824
14.825,0.0545
14.8275,0.0758
14.83,0.0485
14.8325,0.1
14.835,0.0482
14.8375,0.0855
14.84,0.0684
14.8425,0.0257
14.845,0.116
14.8475,0.059
14.85,0.102
14.8525,0.0472
14.855,0.0695
14.8575,0.0689
14.86,0.0608
14.8625,0.0953
14.865,0.0524
14.8675,0.122
14.87,0.119
14.8725,0.0998
14.875,0.119
14.8775,0.12
14.88,0.115
14.8825,0.0442
14.885,0.0944
14.8875,0.0846
14.89,0.106
14.8925,0.0808
14.895,0.108
14.8975,0.1
14.9,0.0959
14.9025,0.116
14.905,0.123
14.9075,0.0428
14.91,0.108
14.9125,0.107
14.915,0.0608
14.9175,0.0743
14.92,0.102
14.9225,0.0509
14.925,0.0968
14.9275,0.0795
14.93,0.0416
14.9325,0.0322
14.935,0.0794
14.9375,0.0452
14.94,0.0996
14.9425,0.0458
14.945,0.104
14.9475,0.0541
14.95,0.0522
14.9525,0.0407
14.955,0.0865
14.9575,0.0985
14.96,0.121
14.9625,0.122
14.965,0.112
14.9675,0.0661
14.97,0.054
14.9725,0.108
14.975,0.0527
14.9775,-0.202
14.98,0.547
14.9825,0.51
14.985,1.22
14.9875,0.86
14.99,-0.849
14.9925,1.05
14.995,0.965
14.9975,-0.1
15,0.0716
15.0025,-0.7
15.005,-0.214
15.0075,-0.79
15.01,0.854
15.0125,0.966
15.015,0.0467
15.0175,0.646
15.02,-0.285
15.0225,-0.338
15.025,0.564
15.0275,-0.202
15.03,-0.636
15.0325,0.145
15.035,-0.263
15.0375,-0.0275
15.04,-0.45
15.0425,1.03
15.045,-0.488
15.0475,-0.589
15.05,0.0392
15.0525,0.354
15.055,1.09
15.0575,0.365
15.06,-0.363
15.0625,-0.855
15.065,0.838
15.0675,0.675
15.07,-0.4
15.0725,0.756
15.075,0.51
15.0775,-0.407
15.08,0.206
15.0825,-0.13
15.085,-0.437
15.0875,0.947
15.09,0.339
15.0925,0.239
15.095,0.843
15.0975,-0.785
15.1,0.169
15.1025,0.467
15.105,-0.533
15.1075,-0.464
15.11,0.256
15.1125,-0.123
15.115,0.165
15.1175,0.11
15.12,0.165
15.1225,-0.171
15.125,0.851
15.1275,0.313
15.13,0.959
15.1325,0.564
15.135,-0.199
15.1375,0.429
15.14,-0.181
15.1425,-0.215
15.145,0.576
15.1475,-0.688
15.15,-0.34
15.1525,-0.818
15.155,1.03
15.1575,0.446
15.16,0.185
15.1625,-0.974
15.165,0.41
15.1675,-0.676
15.17,-0.401
15.1725,0.556
15.175,-0.192
15.1775,0.175
15.18,0.12
15.1825,-0.413
15.185,0.719
15.1875,0.621
15.19,-0.155
15.1925,-0.203
15.195,-0.673
15.1975,0.505
15.2,0.0971
15.2025,0.145
15.205,0.818
15.2075,0.162
15.21,0.336
15.2125,1.03
15.215,-0.0579
15.2175,0.31
15.22,0.0231
15.2225,0.594
15.225,0.351
15.2275,-0.494
15.23,-0.214
15.2325,0.302
15.235,-0.917
15.2375,0.617
15.24,-0.0616
15.2425,-0.386
15.245,-0.416
15.2475,-0.193
15.25,0.221
15.2525,0.716
15.255,0.328
15.2575,0.485
15.26,-0.717
15.2625,-0.455
15.265,0.582
15.2675,0.586
15.27,0.495
15.2725,0.175
15.275,0.183
15.2775,0.951
15.28,0.696
15.2825,0.672
15.285,0.696
15.2875,-0.328
15.29,-0.0549
15.2925,-0.308
15.295,0.34
15.2975,0.463
15.3,-0.104
15.3025,0.168
15.305,0.737
15.3075,-0.781
15.31,0.856
15.3125,-0.696
15.315,-0.35
15.3175,0.166
15.32,-0.493
15.3225,-0.269
15.325,-0.197
15.3275,0.691
15.33,0.748
15.3325,-0.671
15.335,0.891
15.3375,0.612
15.34,0.416
15.3425,0.294
15.345,-0.287
15.3475,0.386
15.35,0.225
15.3525,-0.175
15.355,0.441
15.3575,-0.252
15.36,-0.898
15.3625,-0.273
15.365,0.118
15.3675,0.133
15.37,-0.237
15.3725,0.576
15.375,-0.685
15.3775,0.0612
15.38,-0.571
15.3825,0.549
15.385,-0.307
15.3875,0.274
15.39,-0.609
15.3925,0.627
15.395,-0.401
15.3975,0.365
15.4,0.27
15.4025,0.671
15.405,-0.0594
15.4075,0.967
15.41,-0.668
15.4125,0.313
15.415,0.47
15.4175,0.0224
15.42,0.0895
15.4225,-0.764
15.425,0.237
15.4275,0.00375
15.43,-0.209
15.4325,-0.962
15.435,0.232
15.4375,0.531
15.44,-0.47
15.4425,0.382
15.445,-0.281
15.4475,-0.635
15.45,-0.184
15.4525,0.727
15.455,-0.685
15.4575,-0.165
15.46,0.476
15.4625,-0.483
15.465,0.266
15.4675,0.0194
15.47,-0.117
15.4725,0.978
15.475,-0.0357
15.4775,0.777
15.48,0.854
15.4825,-0.0814
15.485,0.38
15.4875,-0.0859
15.49,1.07
15.4925,0.059
15.495,-0.643
15.4975,-0.514
15.5,-0.349
15.5025,-0.489
15.505,0.39
15.5075,0.97
15.51,0.138
15.5125,-0.293
15.515,-0.495
15.5175,0.74
15.52,-0.0795
15.5225,0.856
15.525,-0.386
15.5275,0.527
15.53,0.123
15.5325,-0.641
15.535,-0.293
15.5375,0.235
15.54,-0.0496
15.5425,0.552
15.545,-0.902
15.5475,-0.818
15.55,0.358
15.5525,-0.102
15.555,0.581
15.5575,0.963
15.56,-0.449
15.5625,-0.147
15.565,-0.0326
15.5675,-0.238
15.57,-0.401
15.5725,-0.558
15.575,0.292
15.5775,0.771
15.58,-0.145
15.5825,0.139
15.585,-0.0281
15.5875,0.509
15.59,-0.0141
15.5925,-0.533
15.595,0.393
15.5975,-0.508
15.6,-0.31
15.6025,-0.545
15.605,-0.423
15.6075,-0.722
15.61,-0.0517
15.6125,0.29
15.615,1.02
15.6175,0.00386
15.62,0.0559
15.6225,0.0735
15.625,0.0949
15.6275,0.0829
15.63,0.0888
15.6325,0.0615
15.635,0.0786
15.6375,0.125
15.64,0.0731
15.6425,0.0831
15.645,0.0561
15.6475,0.107
15.65,0.127
15.6525,0.103
15.655,0.0362
15.6575,0.111
15.66,0.0811
15.6625,0.0992
15.665,0.0929
15.6675,0.0825
15.67,0.0943
15.6725,0.118
15.675,0.107
15.6775,0.0863
15.68,0.0197
15.6825,0.0554
15.685,0.122
15.6875,0.0743
15.69,0.116
15.6925,0.103
15.695,0.0326
15.6975,0.116
15.7,0.093
15.7025,0.0617
15.705,0.117
15.7075,0.0617
15.71,0.0715
15.7125,0.0512
15.715,0.0865
15.7175,0.0749
15.72,0.0412
15.7225,0.0553
15.725,0.0862
15.7275,0.0161
15.73,0.134
15.7325,0.0877
15.735,0.0594
15.7375,0.0404
15.74,0.0589
15.7425,0.0494
15.745,0.0768
15.7475,0.0983
15.75,0.0697
15.7525,0.117
15.755,0.0853
15.7575,0.101
15.76,0.0684
15.7625,0.112
15.765,0.0575
15.7675,0.0793
15.77,0.0271
15.7725,0.0758
15.775,0.113
15.7775,0.0546
15.78,0.0499
15.7825,0.044
15.785,0.0593
15.7875,0.0829
15.79,0.0413
15.7925,0.0217
15.795,0.0536
15.7975,0.0504
15.8,0.0329
15.8025,0.041
15.805,0.135
15.8075,0.0732
15.81,0.11
15.8125,0.101
15.815,0.101
15.8175,0.0977
15.82,0.0598
15.8225,0.0968
15.825,0.0658
15.8275,0.125
15.83,0.116
15.8325,0.139
15.835,0.0639
15.8375,0.096
15.84,0.0656
15.8425,0.0755
15.845,0.11
15.8475,0.0562
15.85,0.0601
15.8525,0.0501
15.855,0.115
15.8575,0.0574
15.86,0.0622
15.8625,0.0567
15.865,0.0976
15.8675,0.0908
15.87,0.064
15.8725,0.0402
15.875,0.0448
15.8775,0.0931
15.88,0.105
15.8825,0.0857
15.885,0.136
15.8875,0.106
15.89,0.0898
15.8925,0.094
15.895,0.145
15.8975,0.0768
15.9,0.0597
15.9025,0.0482
15.905,0.0292
15.9075,0.112
15.91,0.049
15.9125,0.117
15.915,0.0749
15.9175,0.116
15.92,0.0861
15.9225,0.0426
15.925,0.0992
15.9275,0.132
15.93,0.0409
15.9325,0.137
15.935,0.104
15.9375,0.0735
15.94,0.0625
15.9425,0.116
15.945,0.0838
15.9475,0.0456
15.95,0.116
15.9525,0.0974
15.955,0.0852
15.9575,0.0347
15.96,0.0647
15.9625,0.0637
15.965,0.0357
15.9675,0.0348
15.97,0.112
15.9725,0.0734
15.975,0.106
15.9775,0.121
15.98,0.11
15.9825,0.0606
15.985,0.0701
15.9875,0.115
15.99,0.11
15.9925,0.0715
15.995,0.117
15.9975,0.0901
16,0.0768
16.0025,0.0881
16.005,0.0687
16.0075,0.0468
16.01,0.0765
16.0125,0.0359
16.015,0.115
16.0175,0.0837
16.02,0.0168
16.0225,0.0957
16.025,0.0765
16.0275,0.0862
16.03,0.0977
16.0325,0.0769
16.035,0.134
16.0375,0.103
16.04,0.135
16.0425,0.0293
16.045,0.0515
16.0475,0.0952
16.05,0.0824
16.0525,0.0604
16.055,0.11
16.0575,0.0655
16.06,0.131
16.0625,0.0924
16.065,0.0997
16.0675,0.0805
16.07,0.0476
16.0725,0.118
16.075,0.101
16.0775,0.0865
16.08,0.13
16.0825,0.0481
16.085,0.0534
16.0875,0.106
16.09,0.0944
16.0925,0.123
16.095,0.116
16.0975,0.111
16.1,0.0538
16.1025,0.0586
16.105,0.0936
16.1075,0.104
16.11,0.0587
16.1125,0.0887
16.115,0.105
16.1175,0.0734
16.12,0.122
16.1225,0.11
16.125,0.035
16.1275,0.0917
16.13,0.0276
16.1325,0.0706
16.135,0.0809
16.1375,0.075
16.14,0.104
16.1425,0.109
16.145,0.123
16.1475,0.115
16.15,0.0391
16.1525,0.0863
16.155,0.101
16.1575,0.0673
16.16,0.0649
16.1625,0.0718
16.165,0.0697
16.1675,0.0778
16.17,0.0471
16.1725,0.0515
16.175,0.14
16.1775,0.129
16.18,0.0936
16.1825,0.0918
16.185,0.0614
16.1875,0.054
16.19,0.0784
16.1925,0.0883
16.195,0.0723
16.1975,0.125
16.2,0.138
16.2025,0.0347
16.205,0.0736
16.2075,0.0878
16.21,0.0561
16.2125,0.0493
16.215,0.0837
16.2175,0.093
16.22,0.0692
16.2225,0.0613
16.225,0.0991
16.2275,0.0759
16.23,0.126
16.2325,0.0758
16.235,0.0797
16.2375,0.105
16.24,0.0802
16.2425,0.0753
16.245,0.0542
16.2475,0.0909
16.25,0.0443
16.2525,0.121
16.255,0.0589
16.2575,0.0385
16.26,0.0503
16.2625,0.0682
16.265,0.0639
16.2675,0.0881
16.27,0.0651
16.2725,0.0742
16.275,0.088
16.2775,0.0662
16.28,0.129
16.2825,0.04
16.285,0.0926
16.2875,0.0498
16.29,0.0815
16.2925,0.133
16.295,0.0512
16.2975,0.0893
16.3,0.0949
16.3025,0.0825
16.305,0.0714
16.3075,0.134
16.31,0.0812
16.3125,0.0696
16.315,0.0491
16.3175,0.12
16.32,0.0588
16.3225,0.0709
16.325,0.0962
16.3275,0.115
16.33,0.0632
16.3325,0.0627
16.335,0.083
16.3375,0.101
16.34,0.0578
16.3425,0.08
16.345,0.0722
16.3475,0.0392
16.35,0.0453
16.3525,0.107
16.355,0.0851
16.3575,0.0477
16.36,0.101
16.3625,0.085
16.365,0.119
16.3675,0.0262
16.37,0.0829
16.3725,0.118
16.375,0.0628
16.3775,0.101
16.38,0.115
16.3825,0.111
16.385,-0.0373
16.3875,-0.598
16.39,0.553
16.3925,-0.79
16.395,-0.0494
16.3975,0.0717
16.4,-0.42
16.4025,1.14
16.405,-0.175
16.4075,0.0122
16.41,-0.555
16.4125,-0.132
16.415,-0.705
16.4175,0.0651
16.42,0.773
16.4225,0.345
16.425,0.657
16.4275,-0.125
16.43,0.331
16.4325,0.942
16.435,0.508
16.4375,-0.596
16.44,-0.122
16.4425,-0.154
16.445,0.144
16.4475,0.338
16.45,0.311
16.4525,-0.195
16.455,0.741
16.4575,0.31
16.46,0.363
16.4625,0.276
16.465,1
16.4675,0.842
16.47,0.28
16.4725,-0.761
16.475,0.755
16.4775,-0.0886
16.48,-0.0869
16.4825,0.129
16.485,-0.53
16.4875,0.535
16.49,0.498
16.4925,-0.373
16.495,-0.953
16.4975,0.747
16.5,0.0943
16.5025,-0.356
16.505,0.641
16.5075,0.614
16.51,-0.287
16.5125,-0.282
16.515,-0.427
16.5175,0.0257
16.52,0.653
16.5225,0.246
16.525,0.773
16.5275,-0.732
16.53,-0.307
16.5325,0.6
16.535,0.508
16.5375,-0.797
16.54,-0.52
16.5425,-0.506
16.545,-0.917
16.5475,0.853
16.55,-0.12
16.5525,0.311
16.555,0.334
16.5575,0.0934
16.56,0.265
16.5625,0.184
16.565,-0.262
16.5675,-0.63
16.57,-0.2
16.5725,-0.222
16.575,-0.535
16.5775,0.687
16.58,0.966
16.5825,-0.657
16.585,0.151
16.5875,-0.526
16.59,0.655
16.5925,0.277
16.595,-0.299
16.5975,-0.482
16.6,-0.00254
16.6025,0.185
16.605,-0.0422
16.6075,-0.175
16.61,0.921
16.6125,-0.701
16.615,-0.353
16.6175,-0.149
16.62,-0.0447
16.6225,0.534
16.625,0.217
16.6275,0.064
16.63,0.782
16.6325,-0.166
16.635,-0.181
16.6375,0.821
16.64,0.194
16.6425,-0.234
16.645,0.015
16.6475,0.261
16.65,-0.677
16.6525,-0.953
16.655,-0.495
16.6575,0.649
16.66,0.896
16.6625,-0.346
16.665,-0.268
16.6675,0.173
16.67,-0.291
16.6725,-0.373
16.675,-0.206
16.6775,0.226
16.68,1.15
16.6825,0.104
16.685,0.161
16.6875,0.866
16.69,-0.65
16.6925,-0.292
16.695,-0.276
16.6975,0.51
16.7,0.275
16.7025,0.1
16.705,0.115
16.7075,0.674
16.71,-0.0378
16.7125,0.907
16.715,0.869
16.7175,0.517
16.72,-0.259
16.7225,0.946
16.725,0.652
16.7275,0.771
16.73,0.793
16.7325,0.721
16.735,-0.708
16.7375,-0.299
16.74,-0.687
16.7425,-0.736
16.745,-0.779
16.7475,-0.434
16.75,-0.029
16.7525,-0.309
16.755,-0.188
16.7575,0.706
16.76,-0.203
16.7625,0.688
16.765,-0.0729
16.7675,0.109
16.77,-0.812
16.7725,0.106
16.775,-0.777
16.7775,0.467
16.78,-0.424
16.7825,1.02
16.785,0.443
16.7875,-0.133
16.79,-1.04
16.7925,0.992
16.795,-0.41
16.7975,-0.838
16.8,-0.0666
16.8025,-0.0634
16.805,0.427
16.8075,0.12
16.81,0.539
16.8125,0.671
16.815,0.132
16.8175,-0.441
16.82,0.0406
16.8225,-0.109
16.825,-0.102
16.8275,0.345
16.83,0.239
16.8325,0.79
16.835,-1.13
16.8375,-0.601
16.84,0.538
16.8425,-0.849
16.845,0.31
16.8475,0.593
16.85,-0.772
16.8525,0.575
16.855,1.06
16.8575,0.989
16.86,-0.529
16.8625,0.543
16.865,-0.034
16.8675,0.396
16.87,0.929
16.8725,-0.703
16.875,1.04
16.8775,0.403
16.88,0.00619
16.8825,-0.692
16.885,0.403
16.8875,-0.274
16.89,1.31
16.8925,-0.205
16.895,-0.594
16.8975,0.894
16.9,0.203
16.9025,0.143
16.905,0.391
16.9075,0.154
16.91,0.925
16.9125,-0.511
16.915,-0.258
16.9175,-0.254
16.92,1.32
16.9225,-0.338
16.925,0.844
16.9275,-0.422
16.93,-0.526
16.9325,0.111
16.935,-0.686
16.9375,0.439
16.94,0.552
16.9425,0.982
16.945,0.383
16.9475,0.0204
16.95,-0.706
16.9525,-0.131
16.955,-0.245
16.9575,-0.57
16.96,-0.0635
16.9625,-0.8
16.965,0.821
16.9675,-0.344
16.97,-0.0173
16.9725,0.395
16.975,0.781
16.9775,0.903
16.98,-0.126
16.9825,0.341
16.985,0.263
16.9875,0.296
16.99,-0.651
16.9925,0.749
16.995,0.0494
16.9975,0.901
17,-0.505
17.0025,0.595
17.005,0.793
17.0075,0.763
17.01,0.684
17.0125,-0.0932
17.015,0.153
17.0175,0.453
17.02,0.367
17.0225,-0.118
17.025,0.524
17.0275,0.0983
17.03,0.0862
17.0325,0.0638
17.035,0.0792
17.0375,0.0829
17.04,0.111
17.0425,0.0792
17.045,0.0911
17.0475,0.0291
17.05,0.00897
17.0525,0.066
17.055,0.0687
17.0575,0.0297
17.06,0.0954
17.0625,0.0693
17.065,0.122
17.0675,0.0871
17.07,0.102
17.0725,0.0724
17.075,0.0717
17.0775,0.0707
17.08,0.127
17.0825,0.0729
17.085,0.101
17.0875,0.0981
17.09,0.118
17.0925,0.0573
17.095,0.129
17.0975,0.0789
17.1,0.123
17.1025,0.145
17.105,0.0821
17.1075,0.111
17.11,0.0669
17.1125,0.1
17.115,0.105
17.1175,0.0852
17.12,0.0846
17.1225,0.0195
17.125,0.0655
17.1275,0.0901
17.13,0.101
17.1325,0.054
17.135,0.0795
17.1375,0.0513
17.14,0.0678
17.1425,0.0481
17.145,0.112
17.1475,0.0528
17.15,0.00938
17.1525,0.0469
17.155,0.0903
17.1575,0.131
17.16,0.0334
17.1625,0.047
17.165,0.108
17.1675,0.0795
17.17,0.114
17.1725,0.0306
17.175,0.0452
17.1775,0.0555
17.18,0.0454
17.1825,0.119
17.185,0.0514
17.1875,0.0652
17.19,0.035
17.1925,0.0353
17.195,0.116
17.1975,0.039
17.2,0.107
17.2025,0.0584
17.205,0.0697
17.2075,0.112
17.21,0.0691
17.2125,0.0767
17.215,0.099
17.2175,0.0736
17.22,0.0641
17.2225,0.0562
17.225,0.0698
17.2275,0.0777
17.23,0.0793
17.2325,0.135
17.235,0.129
17.2375,0.0954
17.24,0.0674
17.2425,0.076
17.245,0.0541
17.2475,0.121
17.25,0.0301
17.2525,0.0793
17.255,0.0377
17.2575,0.0726
17.26,0.0507
17.2625,0.115
17.265,0.0402
17.2675,0.104
17.27,0.0845
17.2725,0.0826
17.275,0.07
17.2775,0.0394
17.28,0.112
17.2825,0.0356
17.285,0.112
17.2875,0.103
17.29,0.0918
17.2925,0.083
17.295,0.107
17.2975,0.0993
17.3,0.108
17.3025,0.0831
17.305,0.107
17.3075,0.0507
17.31,0.0579
17.3125,0.0472
17.315,0.0979
17.3175,0.05
17.32,0.0589
17.3225,0.0778
17.325,0.0849
17.3275,0.11
17.33,0.0919
17.3325,0.045
17.335,0.0822
17.3375,0.0437
17.34,0.0866
17.3425,0.0608
17.345,0.103
17.3475,0.083
17.35,0.0837
17.3525,0.105
17.355,0.0788
17.3575,0.0796
17.36,0.0862
17.3625,0.134
17.365,0.0738
17.3675,0.052
17.37,0.0621
17.3725,0.0526
17.375,0.108
17.3775,0.117
17.38,0.0662
17.3825,0.0935
17.385,0.0833
17.3875,0.0477
17.39,0.0982
17.3925,0.0971
17.395,0.0264
17.3975,0.0285
17.4,0.027
17.4025,0.0884
17.405,0.0595
17.4075,0.0807
17.41,0.082
17.4125,0.0643
17.415,0.0409
17.4175,0.0813
17.42,0.0583
17.4225,0.0585
17.425,0.0748
17.4275,0.0788
17.43,0.105
17.4325,0.103
17.435,0.113
17.4375,0.0655
17.44,0.133
17.4425,0.02
17.445,0.052
17.4475,0.0354
17.45,0.117
17.4525,0.0884
17.455,0.0298
17.4575,0.0957
17.46,0.0462
17.4625,0.0559
17.465,0.0334
17.4675,0.0678
17.47,0.107
17.4725,0.125
17.475,0.0622
17.4775,0.0625
17.48,0.0648
17.4825,0.0682
17.485,0.111
17.4875,0.0471
17.49,0.0617
17.4925,0.103
17.495,0.114
17.4975,0.0747
17.5,0.0543
17.5025,0.118
17.505,0.12
17.5075,0.0499
17.51,0.0539
17.5125,0.0531
17.515,0.106
17.5175,0.0269
17.52,0.116
17.5225,0.0377
17.525,0.0379
17.5275,0.0614
17.53,0.0485
17.5325,0.104
17.535,0.0763
17.5375,0.0999
17.54,0.0631
17.5425,0.0536
17.545,0.0698
17.5475,0.124
17.55,0.0937
17.5525,0.0393
17.555,0.0645
17.5575,0.053
17.56,0.0569
17.5625,0.0703
17.565,0.0505
17.5675,0.0778
17.57,0.053
17.5725,0.0432
17.575,0.0544
17.5775,0.126
17.58,0.0723
17.5825,0.0716
17.585,0.111
17.5875,0.119
17.59,0.113
17.5925,0.055
17.595,0.0827
17.5975,0.0624
17.6,0.0378
17.6025,0.0622
17.605,0.0273
17.6075,0.0483
17.61,0.0573
17.6125,0.0756
17.615,0.0625
17.6175,0.0506
17.62,0.12
17.6225,0.0958
17.625,0.123
17.6275,0.103
17.63,0.0935
17.6325,0.0547
17.635,0.0804
17.6375,0.0813
17.64,0.11
17.6425,0.0873
17.645,0.0496
17.6475,0.0652
17.65,0.0862
17.6525,0.0734
17.655,0.0831
17.6575,0.0808
17.66,0.0714
17.6625,0.103
17.665,0.0711
17.6675,0.0603
17.67,0.076
17.6725,0.148
17.675,0.147
17.6775,0.088
17.68,0.08
17.6825,0.104
17.685,0.0573
17.6875,0.132
17.69,0.0935
17.6925,0.0485
17.695,0.0403
17.6975,0.0683
17.7,0.0636
17.7025,0.0654
17.705,0.0313
17.7075,0.0881
17.71,0.0928
17.7125,0.0416
17.715,0.0838
17.7175,0.052
17.72,0.0674
17.7225,0.053
17.725,0.0695
17.7275,0.0742
17.73,0.0925
17.7325,0.0924
17.735,0.105
17.7375,0.0772
17.74,0.113
17.7425,0.098
17.745,0.13
17.7475,0.0614
17.75,0.0615
17.7525,0.05
17.755,0.0839
17.7575,0.0935
17.76,0.0192
17.7625,0.0566
17.765,0.0365
17.7675,0.0418
17.77,0.0543
17.7725,0.0754
17.775,0.0784
17.7775,0.104
17.78,0.0307
17.7825,0.117
17.785,0.0809
17.7875,0.0107
17.79,0.0625
17.7925,0.0913
17.795,0.354
17.7975,-0.894
17.8,-0.247
17.8025,-0.204
17.805,0.312
17.8075,0.113
17.81,0.761
17.8125,-0.558
17.815,-0.261
17.8175,-0.76
17.82,-0.787
17.8225,-0.0733
17.825,-0.521
17.8275,0.254
17.83,-1.01
17.8325,-0.0253
17.835,-0.997
17.8375,0.599
17.84,-0.152
17.8425,-0.974
17.845,0.64
17.8475,0.415
17.85,-0.432
17.8525,0.759
17.855,-0.423
17.8575,0.162
17.86,-0.283
17.8625,0.405
17.865,0.0764
17.8675,-0.032
17.87,-0.34
17.8725,0.529
17.875,1.09
17.8775,0.944
17.88,0.565
17.8825,-0.414
17.885,-0.202
17.8875,0.615
17.89,0.0193
17.8925,0.863
17.895,-0.336
17.8975,-0.135
17.9,-0.649
17.9025,-0.443
17.905,-0.578
17.9075,0.552
17.91,-0.44
17.9125,-0.32
17.915,0.332
17.9175,-0.109
17.92,-0.67
17.9225,-0.155
17.925,0.796
17.9275,-0.53
17.93,-0.505
17.9325,0.463
17.935,-0.737
17.9375,-0.162
17.94,-0.0738
17.9425,-0.394
17.945,0.815
17.9475,0.022
17.95,-0.474
17.9525,0.311
17.955,-0.695
17.9575,-0.522
17.96,0.0491
17.9625,-0.594
17.965,0.506
17.9675,0.337
17.97,0.431
17.9725,-0.508
17.975,-0.385
17.9775,0.581
17.98,-0.269
17.9825,0.386
17.985,-0.0411
17.9875,-0.477
17.99,-0.29
17.9925,0.594
17.995,0.361
17.9975,0.47
18,0.346
18.0025,-0.293
18.005,0.336
18.0075,0.595
18.01,0.436
18.0125,-0.607
18.015,-0.552
18.0175,-0.231
18.02,-0.886
18.0225,0.531
18.025,-0.0393
18.0275,-0.301
18.03,-0.325
18.0325,0.686
18.035,-0.559
18.0375,-0.853
18.04,-0.417
18.0425,-0.239
18.045,0.616
18.0475,-0.183
18.05,0.608
18.0525,0.668
18.055,-0.497
18.0575,0.143
18.06,0.332
18.0625,0.352
18.065,0.289
18.0675,0.297
18.07,-0.0525
18.0725,0.0678
18.075,0.0526
18.0775,0.564
18.08,-0.36
18.0825,0.0617
18.085,0.307
18.0875,-0.519
18.09,-0.507
18.0925,0.753
18.095,0.324
18.0975,1
18.1,-0.625
18.1025,0.561
18.105,-0.99
18.1075,0.662
18.11,-0.165
18.1125,0.43
18.115,-0.687
18.1175,0.0303
18.12,-0.777
18.1225,1.05
18.125,-0.559
18.1275,-0.693
18.13,0.811
18.1325,0.299
18.135,-0.609
18.1375,0.0953
18.14,-0.782
18.1425,-0.589
18.145,0.606
18.1475,-0.645
18.15,-0.723
18.1525,-0.579
18.155,0.33
18.1575,0.0745
18.16,1.06
18.1625,0.379
18.165,0.436
18.1675,-0.253
18.17,-0.23
18.1725,0.221
18.175,0.172
18.1775,0.166
18.18,-0.704
18.1825,1.16
18.185,0.472
18.1875,0.558
18.19,0.241
18.1925,-0.511
18.195,0.509
18.1975,0.0404
18.2,0.882
18.2025,-0.494
18.205,0.636
18.2075,0.108
18.21,0.572
18.2125,-0.363
18.215,0.547
18.2175,-0.406
18.22,-0.913
18.2225,-0.531
18.225,-0.442
18.2275,-0.138
18.23,-0.411
18.2325,0.0568
18.235,0.267
18.2375,-0.839
18.24,0.201
18.2425,0.13
18.245,0.232
18.2475,-0.77
18.25,0.904
18.2525,-0.0268
18.255,0.928
18.2575,-0.684
18.26,-0.615
18.2625,-0.322
18.265,0.644
18.2675,0.768
18.27,-0.0265
18.2725,0.933
18.275,0.375
18.2775,-0.247
18.28,0.62
18.2825,-0.329
18.285,-0.717
18.2875,0.408
18.29,0.327
18.2925,-0.197
18.295,-0.216
18.2975,0.13
18.3,0.585
18.3025,-0.0909
18.305,-0.217
18.3075,-0.376
18.31,-0.797
18.3125,-0.509
18.315,-0.163
18.3175,-0.155
18.32,-0.467
18.3225,0.518
18.325,0.872
18.3275,0.158
18.33,0.337
18.3325,-0.222
18.335,0.194
18.3375,-0.689
18.34,-0.684
18.3425,0.548
18.345,-0.326
18.3475,0.182
18.35,-0.185
18.3525,-0.687
18.355,-0.113
18.3575,0.709
18.36,0.855
18.3625,0.574
18.365,0.477
18.3675,0.229
18.37,0.847
18.3725,0.0521
18.375,-0.73
18.3775,1.39
18.38,-0.0971
18.3825,0.0591
18.385,-0.907
18.3875,-0.586
18.39,-0.486
18.3925,-0.575
18.395,1.01
18.3975,-1.01
18.4,-0.47
18.4025,0.0858
18.405,0.527
18.4075,0.293
18.41,-0.641
18.4125,0.247
18.415,-0.306
18.4175,-0.173
18.42,0.695
18.4225,0.495
18.425,-0.263
18.4275,0.435
18.43,-0.186
18.4325,-0.366
18.435,0.119
18.4375,0.0876
18.44,0.0794
18.4425,0.0997
18.445,0.0722
18.4475,0.0392
18.45,0.0654
18.4525,0.0651
18.455,0.0704
18.4575,0.0824
18.46,0.0866
18.4625,0.13
18.465,0.148
18.4675,0.0792
18.47,0.0943
18.4725,0.115
18.475,0.0673
18.4775,0.114
18.48,0.104
18.4825,0.0728
18.485,0.0572
18.4875,0.0899
18.49,0.0358
18.4925,0.0847
18.495,0.0798
18.4975,0.122
18.5,0.0804
18.5025,0.113
18.505,0.0615
18.5075,0.12
18.51,0.0364
18.5125,0.071
18.515,0.0839
18.5175,0.0621
18.52,0.0518
18.5225,0.0564
18.525,0.0637
18.5275,0.0618
18.53,0.0412
18.5325,0.0833
18.535,0.0857
18.5375,0.0466
18.54,0.1
18.5425,0.0711
18.545,0.0769
18.5475,0.0663
18.55,0.0802
18.5525,0.123
18.555,0.0551
18.5575,0.0923
18.56,0.106
18.5625,0.0849
18.565,0.0774
18.5675,0.0464
18.57,0.054
18.5725,0.0362
18.575,0.0807
18.5775,0.0765
18.58,0.067
18.5825,0.0761
18.585,0.117
18.5875,0.112
18.59,0.0432
18.5925,0.102
18.595,0.0895
18.5975,0.0412
18.6,0.116
18.6025,0.0646
18.605,0.0514
18.6075,0.0726
18.61,0.107
18.6125,0.0832
18.615,0.0435
18.6175,0.0583
18.62,0.0912
18.6225,0.0517
18.625,0.0981
18.6275,0.0301
18.63,0.0461
18.6325,0.0839
18.635,0.0775
18.6375,0.13
18.64,0.0708
18.6425,0.092
18.645,0.107
18.6475,0.0914
18.65,0.0932
18.6525,0.0817
18.655,0.0642
18.6575,0.0671
18.66,0.0623
18.6625,0.0607
18.665,0.0592
18.6675,0.0652
18.67,0.109
18.6725,0.0592
18.675,0.0532
18.6775,0.0598
18.68,0.072
18.6825,0.0915
18.685,0.109
18.6875,0.0979
18.69,0.0695
18.6925,0.0624
18.695,0.0979
18.6975,0.0466
18.7,0.134
18.7025,0.0898
18.705,0.107
18.7075,0.0817
18.71,0.0719
18.7125,0.0393
18.715,0.122
18.7175,0.121
18.72,0.0719
18.7225,0.0571
18.725,0.0364
18.7275,0.1
18.73,0.0778
18.7325,0.0683
18.735,0.076
18.7375,0.056
18.74,0.0556
18.7425,0.13
18.745,0.0609
18.7475,0.0895
18.75,0.128
18.7525,0.0418
18.755,0.088
18.7575,0.0841
18.76,0.083
18.7625,0.0579
18.765,0.0866
18.7675,0.0751
18.77,0.0546
18.7725,0.123
18.775,0.0502
18.7775,0.0737
18.78,0.131
18.7825,0.104
18.785,0.0187
18.7875,0.051
18.79,0.128
18.7925,0.068
18.795,0.0944
18.7975,0.0967
18.8,0.0532
18.8025,0.117
18.805,0.0918
18.8075,0.127
18.81,0.0987
18.8125,0.0981
18.815,0.0733
18.8175,0.0521
18.82,0.0773
18.8225,0.08
18.825,0.0449
18.8275,0.0602
18.83,0.11
18.8325,0.131
18.835,0.113
18.8375,0.0939
18.84,0.098
18.8425,0.0368
18.845,0.0662
18.8475,0.0696
18.85,0.0508
18.8525,0.0384
18.855,0.0862
18.8575,0.105
18.86,0.0955
18.8625,0.125
18.865,0.124
18.8675,0.0504
18.87,0.104
18.8725,0.0607
18.875,0.0461
18.8775,0.0702
18.88,0.0627
18.8825,0.122
18.885,0.0778
18.8875,0.0768
18.89,0.0608
18.8925,0.0625
18.895,0.123
18.8975,0.107
18.9,0.0482
18.9025,0.0612
18.905,0.0291
18.9075,0.0635
18.91,0.0437
18.9125,0.0621
18.915,0.0813
18.9175,0.0879
18.92,0.0455
18.9225,0.0566
18.925,0.119
18.9275,0.0313
18.93,0.102
18.9325,0.0767
18.935,0.118
18.9375,0.0976
18.94,0.0842
18.9425,0.0754
18.945,0.0732
18.9475,0.105
18.95,0.0658
18.9525,0.122
18.955,0.101
18.9575,0.0753
18.96,0.0535
18.9625,0.0509
18.965,0.0514
18.9675,0.115
18.97,0.0544
18.9725,0.0399
18.975,0.0944
18.9775,0.0343
18.98,0.101
18.9825,0.0998
18.985,0.0585
18.9875,0.0432
18.99,0.0965
18.9925,0.0767
18.995,0.064
18.9975,0.0969
19,0.0499
19.0025,0.121
19.005,0.0482
19.0075,0.0729
19.01,0.0913
19.0125,0.0299
19.015,0.0397
19.0175,0.0789
19.02,0.0498
19.0225,0.0969
19.025,0.144
19.0275,0.0267
19.03,0.105
19.0325,0.0196
19.035,0.0372
19.0375,0.0986
19.04,0.125
19.0425,0.0965
19.045,0.131
19.0475,0.0499
19.05,0.0801
19.0525,0.09
19.055,0.0543
19.0575,0.103
19.06,0.0662
19.0625,0.0977
19.065,0.0594
19.0675,0.0459
19.07,0.108
19.0725,0.115
19.075,0.103
19.0775,0.108
19.08,0.102
19.0825,0.103
19.085,0.0728
19.0875,0.0315
19.09,0.0929
19.0925,0.0972
19.095,0.0287
19.0975,0.103
19.1,0.0768
19.1025,0.0721
19.105,0.122
19.1075,0.091
19.11,0.0362
19.1125,0.135
19.115,0.0766
19.1175,0.0793
19.12,0.0779
19.1225,0.0968
19.125,0.0474
19.1275,0.121
19.13,0.0851
19.1325,0.121
19.135,0.122
19.1375,0.0594
19.14,0.0685
19.1425,0.036
19.145,0.0967
19.1475,0.04
19.15,0.0881
19.1525,0.056
19.155,0.117
19.1575,0.0287
19.16,0.0923
19.1625,0.097
19.165,0.0359
19.1675,0.0823
19.17,0.0632
19.1725,0.0842
19.175,0.0801
19.1775,0.0683
19.18,0.0814
19.1825,0.151
19.185,0.0544
19.1875,0.0704
19.19,0.133
19.1925,0.0451
19.195,0.0544
19.1975,0.123
19.2,0.0487
19.2025,0.0723
19.205,0.0534
19.2075,0.105
19.21,0.0998
19.2125,0.0895
19.215,0.0761
19.2175,0.112
19.22,0.0725
19.2225,0.0499
19.225,0.142
19.2275,0.0853
19.23,0.0962
19.2325,0.0899
19.235,0.111
19.2375,0.0667
19.24,0.138
19.2425,0.0752
19.245,0.0906
19.2475,0.0814
19.25,0.0996
19.2525,0.1
19.255,0.0955
19.2575,0.0442
19.26,0.109
19.2625,0.0661
19.265,0.0647
19.2675,0.0772
19.27,0.127
19.2725,0.0868
19.275,0.0552
19.2775,0.0547
19.28,0.0805
19.2825,0.0963
19.285,0.0298
19.2875,0.104
19.29,0.0548
19.2925,0.0492
19.295,0.121
19.2975,0.107
19.3,0.0922
19.3025,0.0956
19.305,0.0759
19.3075,0.0811
19.31,0.0617
19.3125,0.0726
19.315,0.0904
19.3175,0.0623
19.32,0.0311
19.3225,0.104
19.325,0.106
19.3275,0.0609
19.33,0.0967
19.3325,0.101
19.335,0.0896
19.3375,0.0692
19.34,0.115
19.3425,0.0597
19.345,0.12
19.3475,0.0778
19.35,0.104
19.3525,0.026
19.355,0.0697
19.3575,0.0906
19.36,0.0548
19.3625,0.0677
19.365,0.0553
19.3675,0.0674
19.37,0.0926
19.3725,0.12
19.375,0.0937
19.3775,0.0812
19.38,0.0636
19.3825,0.103
19.385,0.0847
19.3875,0.122
19.39,0.12
19.3925,0.0649
19.395,0.122
19.3975,0.0442
19.4,0.119
19.4025,0.0644
19.405,0.0687
19.4075,0.0986
19.41,0.134
19.4125,0.0398
19.415,0.0589
19.4175,0.101
19.42,0.0766
19.4225,0.0902
19.425,0.135
19.4275,0.0508
19.43,0.0799
19.4325,0.0312
19.435,0.0545
19.4375,0.0589
19.44,0.074
19.4425,0.0826
19.445,0.0921
19.4475,0.0573
19.45,0.0387
19.4525,0.0937
19.455,0.138
19.4575,0.051
19.46,0.0451
19.4625,0.097
19.465,0.027
19.4675,0.0811
19.47,0.0563
19.4725,0.108
19.475,0.0559
19.4775,0.0989
19.48,0.0694
19.4825,0.132
19.485,0.0927
19.4875,0.0943
19.49,0.103
19.4925,0.128
19.495,0.0322
19.4975,0.0878
19.5,0.0741
19.5025,0.125
19.505,0.0352
19.5075,0.0523
19.51,0.0649
19.5125,0.0711
19.515,0.0952
19.5175,0.104
19.52,0.0771
19.5225,0.0941
19.525,0.092
19.5275,0.0778
19.53,0.0316
19.5325,0.075
19.535,0.096
19.5375,0.105
19.54,0.0922
19.5425,0.047
19.545,0.0839
19.5475,0.0419
19.55,0.0472
19.5525,0.118
19.555,0.04
19.5575,0.0872
19.56,0.143
19.5625,0.0593
19.565,0.0648
19.5675,0.0971
19.57,0.0866
19.5725,0.141
19.575,0.129
19.5775,0.0653
19.58,0.0996
19.5825,0.0605
19.585,0.0518
19.5875,0.141
19.59,0.135
19.5925,0.065
19.595,0.0422
19.5975,0.1
19.6,0.0899
19.6025,0.0815
19.605,0.0723
19.6075,0.13
19.61,0.109
19.6125,0.0521
19.615,0.124
19.6175,0.077
19.62,0.0998
19.6225,0.123
19.625,0.0792
19.6275,0.0923
19.63,0.0975
19.6325,0.103
19.635,0.0351
19.6375,0.0648
19.64,0.0985
19.6425,0.0498
19.645,0.0687
19.6475,0.0959
19.65,0.116
19.6525,0.0832
19.655,0.0679
19.6575,0.0788
19.66,0.0517
19.6625,0.138
19.665,0.0806
19.6675,0.127
19.67,0.025
19.6725,0.0284
19.675,0.0774
19.6775,0.0877
19.68,0.0279
19.6825,0.0521
19.685,0.128
19.6875,0.0766
19.69,0.115
19.6925,0.118
19.695,0.0397
19.6975,0.0768
19.7,0.0687
19.7025,0.062
19.705,0.0795
19.7075,0.0504
19.71,0.0621
19.7125,0.0906
19.715,0.0319
19.7175,0.0982
19.72,0.106
19.7225,0.0543
19.725,0.114
19.7275,0.0606
19.73,0.0554
19.7325,0.0712
19.735,0.077
19.7375,0.0744
19.74,0.124
19.7425,0.0684
19.745,0.0859
19.7475,0.109
19.75,0.0339
19.7525,0.113
19.755,0.0678
19.7575,0.0589
19.76,0.0534
19.7625,0.0802
19.765,0.104
19.7675,0.0311
19.77,0.0958
19.7725,0.0262
19.775,0.0265
19.7775,0.122
19.78,0.046
19.7825,0.0884
19.785,0.111
19.7875,0.076
19.79,0.102
19.7925,0.0953
19.795,0.0654
19.7975,0.0704
19.8,0.0868
19.8025,0.107
19.805,0.114
19.8075,0.0967
19.81,0.113
19.8125,0.0742
19.815,0.0778
19.8175,0.0481
19.82,0.0708
19.8225,0.0579
19.825,0.0971
19.8275,0.0368
19.83,0.0612
19.8325,0.0592
19.835,0.103
19.8375,0.0751
19.84,0.0373
19.8425,0.0659
19.845,0.101
19.8475,0.0552
19.85,0.0813
19.8525,0.0521
19.855,0.121
19.8575,0.109
19.86,0.0779
19.8625,0.0876
19.865,0.0686
19.8675,0.123
19.87,0.102
19.8725,0.0818
19.875,0.0976
19.8775,0.106
19.88,0.0614
19.8825,0.0561
19.885,0.065
19.8875,0.114
19.89,0.106
19.8925,0.0869
19.895,0.104
19.8975,0.0788
19.9,0.0487
19.9025,0.0369
19.905,0.0656
19.9075,0.0961
19.91,0.0593
19.9125,0.135
19.915,0.0736
19.9175,0.0931
19.92,0.0957
19.9225,0.0908
19.925,0.108
19.9275,0.0322
19.93,0.0516
19.9325,0.0455
19.935,0.099
19.9375,0.0555
19.94,0.116
19.9425,0.0856
19.945,0.0624
19.9475,0.0837
19.95,0.0821
19.9525,0.014
19.955,0.105
19.9575,0.0688
19.96,0.121
19.9625,0.123
19.965,0.09
19.9675,0.11
19.97,-0.218
19.9725,-0.16
19.975,0.753
19.9775,1.27
19.98,-0.526
19.9825,-0.267
19.985,-0.188
19.9875,0.0195
19.99,-0.332
19.9925,0.817
19.995,0.322
19.9975,0.18
20,-0.256
20.0025,1.06
20.005,0.475
20.0075,-0.784
20.01,0.747
20.0125,-0.655
20.015,0.739
20.0175,0.611
20.02,-0.351
20.0225,-0.0557
20.025,0.176
20.0275,-0.476
20.03,0.342
20.0325,-0.278
20.035,0.358
20.0375,-0.489
20.04,-0.767
20.0425,0.791
20.045,-0.483
20.0475,0.985
20.05,-0.263
20.0525,-0.555
20.055,-0.66
20.0575,0.382
20.06,0.663
20.0625,-0.431
20.065,-0.824
20.0675,-0.649
20.07,0.242
20.0725,-0.0547
20.075,-0.684
20.0775,-0.806
20.08,-0.444
20.0825,-0.236
20.085,-0.678
20.0875,0.539
20.09,0.165
20.0925,0.909
20.095,-0.261
20.0975,0.654
20.1,0.596
20.1025,0.235
20.105,0.371
20.1075,0.181
20.11,0.509
20.1125,-0.687
20.115,0.909
20.1175,0.667
20.12,-0.52
20.1225,0.355
20.125,0.976
20.1275,0.175
20.13,0.0501
20.1325,-0.64
20.135,0.403
20.1375,0.494
20.14,0.477
20.1425,-0.181
20.145,0.866
20.1475,0.394
20.15,-0.186
20.1525,-0.691
20.155,0.19
20.1575,0.314
20.16,-0.0562
20.1625,-0.371
20.165,0.769
20.1675,0.512
20.17,-0.612
20.1725,-0.126
20.175,0.167
20.1775,0.879
20.18,0.00131
20.1825,-0.46
20.185,0.199
20.1875,-0.418
20.19,-0.0285
20.1925,-0.806
20.195,0.833
20.1975,0.278
20.2,0.189
20.2025,0.132
20.205,1.02
20.2075,-0.808
20.21,-0.714
20.2125,0.331
20.215,0.571
20.2175,-0.652
20.22,0.813
20.2225,-0.142
20.225,0.68
20.2275,0.0882
20.23,-0.0298
20.2325,-0.516
20.235,0.313
20.2375,0.2
20.24,-0.256
20.2425,0.0906
20.245,-0.78
20.2475,-0.92
20.25,0.903
20.2525,1.05
20.255,0.975
20.2575,-0.815
20.26,0.906
20.2625,-0.184
20.265,-0.0358
20.2675,0.5
20.27,0.274
20.2725,-0.462
20.275,-0.837
20.2775,0.43
20.28,0.314
20.2825,0.953
20.285,-0.273
20.2875,0.275
20.29,0.582
20.2925,0.793
20.295,0.84
20.2975,0.29
20.3,-0.644
20.3025,-0.56
20.305,0.746
20.3075,-0.401
20.31,1.06
20.3125,0.929
20.315,-0.676
20.3175,0.154
20.32,0.0207
20.3225,0.457
20.325,0.553
20.3275,0.652
20.33,-0.71
20.3325,-0.195
20.335,0.153
20.3375,0.78
20.34,0.253
20.3425,0.36
20.345,-0.759
20.3475,-0.754
20.35,0.472
20.3525,-0.645
20.355,-0.391
20.3575,-0.0487
20.36,0.317
20.3625,-0.748
20.365,-0.454
20.3675,-0.561
20.37,-0.0602
20.3725,-0.744
20.375,0.154
20.3775,-0.127
20.38,-0.727
20.3825,-0.297
20.385,0.615
20.3875,0.266
20.39,-0.343
20.3925,-0.266
20.395,-0.695
20.3975,-0.605
20.4,-0.209
20.4025,0.191
20.405,0.815
20.4075,0.757
20.41,-0.115
20.4125,-0.0276
20.415,0.308
20.4175,0.0213
20.42,-0.571
20.4225,0.593
20.425,0.362
20.4275,0.556
20.43,-0.28
20.4325,-0.152
20.435,-0.324
20.4375,-0.318
20.44,-0.0352
20.4425,-0.1
20.445,0.555
20.4475,-0.0275
20.45,-0.701
20.4525,-0.704
20.455,0.577
20.4575,-0.437
20.46,0.484
20.4625,0.306
20.465,0.205
20.4675,0.569
20.47,0.133
20.4725,0.851
20.475,0.989
20.4775,0.384
20.48,0.379
20.4825,-0.29
20.485,0.165
20.4875,-0.505
20.49,-0.374
20.4925,0.264
20.495,0.564
20.4975,0.178
20.5,0.544
20.5025,-0.526
20.505,0.794
20.5075,-0.703
20.51,0.164
20.5125,0.768
20.515,0.233
20.5175,-0.605
20.52,-0.619
20.5225,-0.0708
20.525,-0.549
20.5275,-0.416
20.53,-0.756
20.5325,-0.623
20.535,-1.08
20.5375,0.0752
20.54,0.723
20.5425,0.229
20.545,-1.08
20.5475,-0.398
20.55,0.653
20.5525,0.273
20.555,0.16
20.5575,0.863
20.56,0.6
20.5625,-0.655
20.565,-0.73
20.5675,-0.321
20.57,0.534
20.5725,0.272
20.575,-0.915
20.5775,0.257
20.58,0.88
20.5825,-0.739
20.585,0.102
20.5875,-0.38
20.59,0.145
20.5925,0.0188
20.595,-0.184
20.5975,0.0481
20.6,0.54
20.6025,-0.309
20.605,-0.401
20.6075,0.922
20.61,0.012
20.6125,0.123
20.615,0.106
20.6175,0.049
20.62,0.0854
20.6225,0.048
20.625,0.0572
20.6275,0.0807
20.63,0.0624
20.6325,0.0263
20.635,0.0499
20.6375,0.109
20.64,0.117
20.6425,0.101
20.645,0.119
20.6475,0.11
20.65,0.0581
20.6525,0.0725
20.655,0.0669
20.6575,0.0665
20.66,0.139
20.6625,0.0519
20.665,0.128
20.6675,0.0721
20.67,0.0853
20.6725,0.101
20.675,0.0547
20.6775,0.103
20.68,0.0963
20.6825,0.115
20.685,0.0969
20.6875,0.0563
20.69,0.0948
20.6925,0.0731
20.695,0.0375
20.6975,0.0726
20.7,0.142
20.7025,0.131
20.705,0.0901
20.7075,0.0575
20.71,0.0628
20.7125,0.0898
20.715,0.0883
20.7175,0.105
20.72,0.0828
20.7225,0.104
20.725,0.052
20.7275,0.0626
20.73,0.11
20.7325,0.0917
20.735,0.047
20.7375,0.119
20.74,0.043
20.7425,0.0807
20.745,0.0534
20.7475,0.0669
20.75,0.0918
20.7525,0.101
20.755,0.0974
20.7575,0.0524
20.76,0.11
20.7625,0.0303
20.765,0.046
20.7675,0.0745
20.77,0.0598
20.7725,0.104
20.775,0.106
20.7775,0.0357
20.78,0.0939
20.7825,0.088
20.785,0.0749
20.7875,0.115
20.79,0.0591
20.7925,0.122
20.795,0.127
20.7975,0.0539
20.8,0.132
20.8025,0.0433
20.805,0.0529
20.8075,0.0815
20.81,0.104
20.8125,0.124
20.815,0.117
20.8175,0.0662
20.82,0.0849
20.8225,0.102
20.825,0.0257
20.8275,0.0383
20.83,0.106
20.8325,0.0415
20.835,0.101
20.8375,0.0589
20.84,0.0952
20.8425,0.0727
20.845,0.115
20.8475,0.0375
20.85,0.0319
20.8525,0.0858
20.855,0.107
20.8575,0.0818
20.86,0.0781
20.8625,0.0617
20.865,0.109
20.8675,0.0661
20.87,0.111
20.8725,0.032
20.875,0.0765
20.8775,0.0686
20.88,0.0967
20.8825,0.0851
20.885,0.0945
20.8875,0.0468
20.89,0.0539
20.8925,0.103
20.895,0.0455
20.8975,0.0972
20.9,0.0532
20.9025,0.113
20.905,0.0429
20.9075,0.0971
20.91,0.0972
20.9125,0.0656
20.915,0.0594
20.9175,0.0715
20.92,0.0611
20.9225,0.0524
20.925,0.101
20.9275,0.0798
20.93,0.0714
20.9325,0.123
20.935,0.0899
20.9375,0.104
20.94,0.0535
20.9425,0.0262
20.945,0.0458
20.9475,0.0318
20.95,0.0695
20.9525,0.0861
20.955,0.0806
20.9575,0.128
20.96,0.13
20.9625,0.109
20.965,0.0866
20.9675,0.0554
20.97,0.0705
20.9725,0.0541
20.975,0.103
20.9775,0.0154
20.98,0.106
20.9825,0.0877
20.985,0.0418
20.9875,0.0456
20.99,0.0896
20.9925,0.156
20.995,0.0396
20.9975,0.0398
21,0.0527
21.0025,0.0348
21.005,0.111
21.0075,0.0545
21.01,0.0608
21.0125,0.0701
21.015,0.0697
21.0175,0.0778
21.02,0.0578
21.0225,0.0979
21.025,0.0597
21.0275,0.0943
21.03,0.0316
21.0325,0.0877
21.035,0.115
21.0375,0.12
21.04,0.0989
21.0425,0.0948
21.045,0.0425
21.0475,0.115
21.05,0.11
21.0525,0.083
21.055,0.07
21.0575,0.0873
21.06,0.0662
21.0625,0.106
21.065,0.125
21.0675,0.0331
21.07,0.107
21.0725,0.0819
21.075,0.103
21.0775,0.0573
21.08,0.0852
21.0825,0.0508
21.085,0.0442
21.0875,0.0728
21.09,0.0333
21.0925,0.0263
21.095,0.112
21.0975,0.0756
21.1,0.142
21.1025,0.128
21.105,0.0889
21.1075,0.0649
21.11,0.0541
21.1125,0.0454
21.115,0.108
21.1175,0.0829
21.12,0.0988
21.1225,0.0438
21.125,0.0972
21.1275,0.0566
21.13,0.1
21.1325,0.053
21.135,0.095
21.1375,0.0382
21.14,0.086
21.1425,0.0926
21.145,0.111
21.1475,0.0831
21.15,0.0976
21.1525,0.0983
21.155,0.114
21.1575,0.0594
21.16,0.0772
21.1625,0.0748
21.165,0.05
21.1675,0.0511
21.17,0.0384
21.1725,0.0685
21.175,0.06
21.1775,0.054
21.18,0.115
21.1825,0.0904
21.185,0.0891
21.1875,0.0993
21.19,0.0619
21.1925,0.109
21.195,0.073
21.1975,0.0446
21.2,0.0381
21.2025,0.0882
21.205,0.0568
21.2075,0.0286
21.21,0.109
21.2125,0.0359
21.215,0.0708
21.2175,0.139
21.22,0.044
21.2225,0.0824
21.225,0.0545
21.2275,0.0758
21.23,0.0485
21.2325,0.1
21.235,0.0482
21.2375,0.0855
21.24,0.0684
21.2425,0.0257
21.245,0.116
21.2475,0.059
21.25,0.102
21.2525,0.0472
21.255,0.0695
21.2575,0.0689
21.26,0.0608
21.2625,0.0953
21.265,0.0524
21.2675,0.122
21.27,0.119
21.2725,0.0998
21.275,0.119
21.2775,0.12
21.28,0.115
21.2825,0.0442
21.285,0.0944
21.2875,0.0846
21.29,0.106
21.2925,0.0808
21.295,0.108
21.2975,0.1
21.3,0.0959
21.3025,0.116
21.305,0.123
21.3075,0.0428
21.31,0.108
21.3125,0.107
21.315,0.0608
21.3175,0.0743
21.32,0.102
21.3225,0.0509
21.325,0.0968
21.3275,0.0795
21.33,0.0416
21.3325,0.0322
21.335,0.0794
21.3375,0.0452
21.34,0.0996
21.3425,0.0458
21.345,0.104
21.3475,0.0541
21.35,0.0522
21.3525,0.0407
21.355,0.0865
21.3575,0.0985
21.36,0.121
21.3625,0.122
21.365,0.112
21.3675,0.0661
21.37,0.054
21.3725,0.108
21.375,0.0527
21.3775,-0.202
21.38,0.547
21.3825,0.51
21.385,1.22
21.3875,0.86
21.39,-0.849
21.3925,1.05
21.395,0.965
21.3975,-0.1
21.4,0.0716
21.4025,-0.7
21.405,-0.214
21.4075,-0.79
21.41,0.854
21.4125,0.966
21.415,0.0467
21.4175,0.646
21.42,-0.285
21.4225,-0.338
21.425,0.564
21.4275,-0.202
21.43,-0.636
21.4325,0.145
21.435,-0.263
21.4375,-0.0275
21.44,-0.45
21.4425,1.03
21.445,-0.488
21.4475,-0.589
21.45,0.0392
21.4525,0.354
21.455,1.09
21.4575,0.365
21.46,-0.363
21.4625,-0.855
21.465,0.838
21.4675,0.675
21.47,-0.4
21.4725,0.756
21.475,0.51
21.4775,-0.407
21.48,0.206
21.4825,-0.13
21.485,-0.437
21.4875,0.947
21.49,0.339
21.4925,0.239
21.495,0.843
21.4975,-0.785
21.5,0.169
21.5025,0.467
21.505,-0.533
21.5075,-0.464
21.51,0.256
21.5125,-0.123
21.515,0.165
21.5175,0.11
21.52,0.165
21.5225,-0.171
21.525,0.851
21.5275,0.313
21.53,0.959
21.5325,0.564
21.535,-0.199
21.5375,0.429
21.54,-0.181
21.5425,-0.215
21.545,0.576
21.5475,-0.688
21.55,-0.34
21.5525,-0.818
21.555,1.03
21.5575,0.446
21.56,0.185
21.5625,-0.974
21.565,0.41
21.5675,-0.676
21.57,-0.401
21.5725,0.556
21.575,-0.192
21.5775,0.175
21.58,0.12
21.5825,-0.413
21.585,0.719
21.5875,0.621
21.59,-0.155
21.5925,-0.203
21.595,-0.673
21.5975,0.505
21.6,0.0971
21.6025,0.145
21.605,0.818
21.6075,0.162
21.61,0.336
21.6125,1.03
21.615,-0.0579
21.6175,0.31
21.62,0.0231
21.6225,0.594
21.625,0.351
21.6275,-0.494
21.63,-0.214
21.6325,0.302
21.635,-0.917
21.6375,0.617
21.64,-0.0616
21.6425,-0.386
21.645,-0.416
21.6475,-0.193
21.65,0.221
21.6525,0.716
21.655,0.328
21.6575,0.485
21.66,-0.717
21.6625,-0.455
21.665,0.582
21.6675,0.586
21.67,0.495
21.6725,0.175
21.675,0.183
21.6775,0.951
21.68,0.696
21.6825,0.672
21.685,0.696
21.6875,-0.328
21.69,-0.0549
21.6925,-0.308
21.695,0.34
21.6975,0.463
21.7,-0.104
21.7025,0.168
21.705,0.737
21.7075,-0.781
21.71,0.856
21.7125,-0.696
21.715,-0.35
21.7175,0.166
21.72,-0.493
21.7225,-0.269
21.725,-0.197
21.7275,0.691
21.73,0.748
21.7325,-0.671
21.735,0.891
21.7375,0.612
21.74,0.416
21.7425,0.294
21.745,-0.287
21.7475,0.386
21.75,0.225
21.7525,-0.175
21.755,0.441
21.7575,-0.252
21.76,-0.898
21.7625,-0.273
21.765,0.118
21.7675,0.133
21.77,-0.237
21.7725,0.576
21.775,-0.685
21.7775,0.0612
21.78,-0.571
21.7825,0.549
21.785,-0.307
21.7875,0.274
21.79,-0.609
21.7925,0.627
21.795,-0.401
21.7975,0.365
21.8,0.27
21.8025,0.671
21.805,-0.0594
21.8075,0.967
21.81,-0.668
21.8125,0.313
21.815,0.47
21.8175,0.0224
21.82,0.0895
21.8225,-0.764
21.825,0.237
21.8275,0.00375
21.83,-0.209
21.8325,-0.962
21.835,0.232
21.8375,0.531
21.84,-0.47
21.8425,0.382
21.845,-0.281
21.8475,-0.635
21.85,-0.184
21.8525,0.727
21.855,-0.685
21.8575,-0.165
21.86,0.476
21.8625,-0.483
21.865,0.266
21.8675,0.0194
21.87,-0.117
21.8725,0.978
21.875,-0.0357
21.8775,0.777
21.88,0.854
21.8825,-0.0814
21.885,0.38
21.8875,-0.0859
21.89,1.07
21.8925,0.059
21.895,-0.643
21.8975,-0.514
21.9,-0.349
21.9025,-0.489
21.905,0.39
21.9075,0.97
21.91,0.138
21.9125,-0.293
21.915,-0.495
21.9175,0.74
21.92,-0.0795
21.9225,0.856
21.925,-0.386
21.9275,0.527
21.93,0.123
21.9325,-0.641
21.935,-0.293
21.9375,0.235
21.94,-0.0496
21.9425,0.552
21.945,-0.902
21.9475,-0.818
21.95,0.358
21.9525,-0.102
21.955,0.581
21.9575,0.963
21.96,-0.449
21.9625,-0.147
21.965,-0.0326
21.9675,-0.238
21.97,-0.401
21.9725,-0.558
21.975,0.292
21.9775,0.771
21.98,-0.145
21.9825,0.139
21.985,-0.0281
21.9875,0.509
21.99,-0.0141
21.9925,-0.533
21.995,0.393
21.9975,-0.508
22,-0.31
22.0025,-0.545
22.005,-0.423
22.0075,-0.722
22.01,-0.0517
22.0125,0.29
22.015,1.02
22.0175,0.00386
22.02,0.0559
22.0225,0.0735
22.025,0.0949
22.0275,0.0829
22.03,0.0888
22.0325,0.0615
22.035,0.0786
22.0375,0.125
22.04,0.0731
22.0425,0.0831
22.045,0.0561
22.0475,0.107
22.05,0.127
22.0525,0.103
22.055,0.0362
22.0575,0.111
22.06,0.0811
22.0625,0.0992
22.065,0.0929
22.0675,0.0825
22.07,0.0943
22.0725,0.118
22.075,0.107
22.0775,0.0863
22.08,0.0197
22.0825,0.0554
22.085,0.122
22.0875,0.0743
22.09,0.116
22.0925,0.103
22.095,0.0326
22.0975,0.116
22.1,0.093
22.1025,0.0617
22.105,0.117
22.1075,0.0617
22.11,0.0715
22.1125,0.0512
22.115,0.0865
22.1175,0.0749
22.12,0.0412
22.1225,0.0553
22.125,0.0862
22.1275,0.0161
22.13,0.134
22.1325,0.0877
22.135,0.0594
22.1375,0.0404
22.14,0.0589
22.1425,0.0494
22.145,0.0768
22.1475,0.0983
22.15,0.0697
22.1525,0.117
22.155,0.0853
22.1575,0.101
22.16,0.0684
22.1625,0.112
22.165,0.0575
22.1675,0.0793
22.17,0.0271
22.1725,0.0758
22.175,0.113
22.1775,0.0546
22.18,0.0499
22.1825,0.044
22.185,0.0593
22.1875,0.0829
22.19,0.0413
22.1925,0.0217
22.195,0.0536
22.1975,0.0504
22.2,0.0329
22.2025,0.041
22.205,0.135
22.2075,0.0732
22.21,0.11
22.2125,0.101
22.215,0.101
22.2175,0.0977
22.22,0.0598
22.2225,0.0968
22.225,0.0658
22.2275,0.125
22.23,0.116
22.2325,0.139
22.235,0.0639
22.2375,0.096
22.24,0.0656
22.2425,0.0755
22.245,0.11
22.2475,0.0562
22.25,0.0601
22.2525,0.0501
22.255,0.115
22.2575,0.0574
22.26,0.0622
22.2625,0.0567
22.265,0.0976
22.2675,0.0908
22.27,0.064
22.2725,0.0402
22.275,0.0448
22.2775,0.0931
22.28,0.105
22.2825,0.0857
22.285,0.136
22.2875,0.106
22.29,0.0898
22.2925,0.094
22.295,0.145
22.2975,0.0768
22.3,0.0597
22.3025,0.0482
22.305,0.0292
22.3075,0.112
22.31,0.049
22.3125,0.117
22.315,0.0749
22.3175,0.116
22.32,0.0861
22.3225,0.0426
22.325,0.0992
22.3275,0.132
22.33,0.0409
22.3325,0.137
22.335,0.104
22.3375,0.0735
22.34,0.0625
22.3425,0.116
22.345,0.0838
22.3475,0.0456
22.35,0.116
22.3525,0.0974
22.355,0.0852
22.3575,0.0347
22.36,0.0647
22.3625,0.0637
22.365,0.0357
22.3675,0.0348
22.37,0.112
22.3725,0.0734
22.375,0.106
22.3775,0.121
22.38,0.11
22.3825,0.0606
22.385,0.0701
22.3875,0.115
22.39,0.11
22.3925,0.0715
22.395,0.117
22.3975,0.0901
22.4,0.0768
22.4025,0.0881
22.405,0.0687
22.4075,0.0468
22.41,0.0765
22.4125,0.0359
22.415,0.115
22.4175,0.0837
22.42,0.0168
22.4225,0.0957
22.425,0.0765
22.4275,0.0862
22.43,0.0977
22.4325,0.0769
22.435,0.134
22.4375,0.103
22.44,0.135
22.4425,0.0293
22.445,0.0515
22.4475,0.0952
22.45,0.0824
22.4525,0.0604
22.455,0.11
22.4575,0.0655
22.46,0.131
22.4625,0.0924
22.465,0.0997
22.4675,0.0805
22.47,0.0476
22.4725,0.118
22.475,0.101
22.4775,0.0865
22.48,0.13
22.4825,0.0481
22.485,0.0534
22.4875,0.106
22.49,0.0944
22.4925,0.123
22.495,0.116
22.4975,0.111
22.5,0.0538
22.5025,0.0586
22.505,0.0936
22.5075,0.104
22.51,0.0587
22.5125,0.0887
